Index
0
1
2
3
4
5
6
8
9
10
11
12
13
14
15
16
18
19
21
23
25
27
28
29
30
33
34
35
37
38
42
44
46
47
48
49
50
51
52
53
54
55
56
57
58
59
60
61
63
64
65
66
67
68
69
70
72
73
74
75
76
77
78
80
81
82
83
86
87
89
90
91
92
93
94
95
96
97
98
99
100
101
103
108
115
117
119
120
121
126
127
128
130
132
133
139
140
142
143
146
148
150
155
156
158
159
160
162
163
164
165
166
167
170
171
172
173
174
176
178
181
182
184
185
186
187
188
189
190
194
196
197
198
199
200
201
202
203
204
205
206
214
216
217
220
223
225
227
228
230
233
238
239
242
243
247
249
250
251
252
253
258
261
263
264
266
270
272
275
278
280
282
285
286
288
289
291
297
298
299
300
301
303
304
305
308
309
310
311
313
314
315
316
317
318
319
320
322
324
326
327
329
330
331
332
333
334
335
336
337
338
339
340
341
345
346
353
355
360
363
364
365
366
367
368
369
370
371
372
374
375
376
377
380
382
384
385
387
388
390
391
394
395
398
399
400
401
405
406
412
413
415
416
418
419
422
427
428
431
440
442
448
450
454
455
459
464
465
468
469
475
476
479
480
482
484
485
489
491
492
495
497
498
499
503
504
505
509
510
512
513
520
521
524
528
529
532
533
534
535
542
543
545
546
547
548
549
551
553
557
558
559
561
563
565
566
567
569
571
572
573
574
576
578
579
580
582
586
587
594
596
607
612
616
618
621
624
629
630
631
634
642
643
645
646
647
650
654
658
660
661
662
663
664
665
666
667
668
669
670
671
674
676
677
678
679
682
686
687
688
690
691
694
695
697
699
700
701
705
711
713
715
716
718
719
720
724
726
730
731
738
739
740
742
743
744
745
747
751
752
753
755
756
758
761
763
764
765
767
768
770
771
772
774
775
776
777
779
780
781
787
790
791
793
794
795
798
799
800
801
804
806
807
813
814
817
819
821
823
824
828
829
830
832
833
836
839
841
843
845
848
849
852
855
859
860
861
862
863
867
868
870
874
875
877
878
879
883
884
885
889
892
896
900
902
909
910
913
918
919
921
926
932
934
937
938
940
941
942
943
944
945
946
948
950
951
956
958
959
960
961
962
963
964
966
967
969
971
972
973
980
981
982
983
984
985
986
992
999
1001
1003
1004
1006
1008
1009
1014
1015
1017
1022
1023
1024
1027
1028
1031
1034
1036
1038
1039
1042
1044
1047
1048
1049
1051
1054
1058
1062
1069
1071
1072
1073
1074
1076
1077
1078
1079
1080
1083
1084
1085
1088
1089
1090
1091
1092
1093
1094
1095
1096
1097
1098
1099
1103
1104
1106
1107
1109
1110
1111
1112
1113
1114
1116
1117
1119
1120
1121
1122
1123
1124
1125
1126
1128
1129
1130
1131
1132
1134
1136
1138
1141
1144
1145
1146
1149
1150
1151
1155
1156
1158
1159
1160
1162
1163
1164
1165
1167
1171
1172
1174
1175
1179
1180
1183
1185
1186
1187
1189
1191
1192
1193
1197
1198
1202
1203
1204
1206
1207
1211
1212
1213
1214
1215
1217
1218
1219
1222
1224
1225
1227
1230
1232
1239
1243
1247
1248
1253
1254
1255
1257
1258
1259
1262
1264
1268
1271
1272
1273
1275
1279
1281
1285
1286
1288
1289
1291
1294
1295
1296
1297
1299
1300
1301
1308
1309
1312
1315
1316
1319
1320
1321
1322
1324
1326
1327
1331
1333
1341
1343
1344
1346
1347
1348
1351
1352
1354
1358
1359
1363
1365
1366
1367
1369
1370
1377
1380
1381
1383
1387
1390
1393
1396
1397
1398
1400
1401
1403
1404
1406
1408
1410
1412
1414
1415
1416
1419
1421
1424
1427
1429
1431
1432
1433
1434
1435
1437
1439
1441
1443
1444
1447
1448
1451
1452
1455
1459
1460
1464
1465
1466
1467
1469
1471
1472
1473
1474
1477
1478
1481
1484
1485
1487
1489
1493
1495
1496
1497
1499
1501
1503
1507
1509
1511
1512
1515
1520
1521
1523
1528
1531
1532
1534
1536
1537
1539
1540
1543
1544
1546
1547
1548
1549
1550
1558
1562
1571
1574
1576
1577
1578
1579
1582
1583
1585
1586
1587
1590
1591
1594
1600
1601
1603
1605
1606
1607
1609
1610
1612
1613
1615
1617
1618
1620
1622
1624
1625
1626
1629
1631
1632
1634
1637
1639
1640
1643
1644
1647
1648
1650
1651
1653
1654
1655
1659
1660
1665
1668
1670
1677
1678
1683
1684
1687
1688
1689
1690
1699
1700
1702
1703
1704
1706
1707
1715
1716
1722
1723
1727
1729
1730
1731
1733
1734
1737
1739
1740
1742
1744
1745
1746
1747
1748
1749
1750
1755
1758
1759
1760
1761
1762
1763
1765
1766
1767
1769
1771
1772
1774
1775
1776
1777
1779
1781
1782
1785
1786
1788
1789
1792
1794
1795
1796
1798
1800
1801
1802
1803
1805
1806
1810
1812
1813
1815
1816
1817
1819
1826
1827
1828
1832
1836
1837
1838
1839
1840
1842
1843
1847
1848
1849
1850
1851
1853
1857
1859
1860
1865
1866
1867
1870
1871
1872
1874
1875
1876
1881
1883
1884
1885
1887
1888
1889
1891
1892
1894
1895
1898
1899
1903
1907
1908
1909
1910
1911
1912
1913
1922
1923
1924
1928
1931
1932
1938
1941
1944
1948
1950
1952
1954
1955
1956
1959
1961
1964
1965
1966
1967
1968
1969
1974
1975
1976
1977
1979
1980
1982
1983
1985
1986
1987
1988
1989
1990
1992
1994
1995
1996
1997
1998
1999
2000
2002
2003
2004
2005
2006
2008
2009
2014
2015
2016
2018
2019
2021
2022
2023
2025
2026
2027
2029
2030
2031
2032
2034
2035
2038
2041
2043
2044
2045
2046
2047
2049
2050
2051
2052
2054
2055
2056
2058
2059
2060
2061
2063
2064
2065
2068
2069
2071
2072
2076
2077
2079
2080
2082
2083
2087
2088
2090
2091
2092
2093
2094
2095
2096
2099
2102
2106
2109
2113
2114
2115
2116
2117
2118
2120
2125
2126
2127
2129
2130
2131
2132
2133
2134
2138
2139
2145
2147
2148
2149
2150
2151
2155
2158
2161
2165
2166
2169
2170
2171
2175
2176
2180
2184
2187
2189
2192
2193
2194
2195
2197
2198
2200
2201
2202
2206
2209
2212
2213
2214
2216
2217
2218
2222
2226
2229
2230
2231
2232
2235
2236
2237
2238
2239
2240
2242
2244
2247
2248
2249
2250
2253
2256
2257
2258
2259
2260
2261
2263
2264
2265
2266
2267
2268
2269
2271
2272
2273
2274
2275
2278
2279
2286
2287
2288
2289
2290
2291
2296
2299
2300
2304
2305
2306
2308
2311
2312
2313
2314
2315
2319
2321
2322
2323
2324
2325
2327
2332
2334
2335
2336
2337
2345
2346
2349
2351
2352
2355
2356
2358
2359
2372
2373
2375
2376
2377
2379
2384
2385
2386
2388
2389
2391
2392
2393
2394
2396
2397
2399
2400
2403
2408
2413
2414
2417
2422
2423
2429
2430
2431
2435
2436
2437
2438
2439
2441
2442
2444
2445
2447
2448
2451
2453
2454
2456
2457
2458
2459
2461
2464
2465
2468
2469
2472
2474
2476
2478
2481
2482
2484
2485
2488
2490
2492
2497
2498
2503
2504
2506
2509
2510
2511
2512
2513
2516
2519
2521
2522
2523
2524
2525
2526
2529
2530
2531
2532
2536
2537
2539
2540
2541
2544
2547
2550
2552
2553
2556
2557
2559
2560
2561
2562
2563
2564
2565
2566
2568
2570
2574
2578
2579
2581
2585
2586
2587
2588
2590
2591
2594
2595
2596
2597
2602
2604
2605
2607
2610
2612
2613
2614
2620
2623
2625
2629
2630
2632
2637
2639
2642
2643
2646
2647
2652
2653
2654
2655
2656
2659
2661
2662
2663
2664
2665
2666
2667
2670
2674
2675
2676
2680
2681
2683
2684
2687
2688
2690
2692
2697
2699
2702
2703
2704
2707
2709
2712
2714
2716
2717
2718
2721
2722
2723
2726
2727
2729
2730
2731
2740
2743
2744
2745
2747
2748
2750
2751
2753
2755
2758
2759
2761
2763
2767
2771
2773
2778
2783
2784
2785
2786
2789
2792
2793
2795
2800
2806
2807
2808
2809
2810
2812
2814
2816
2817
2824
2825
2826
2828
2830
2831
2832
2833
2835
2836
2837
2841
2845
2846
2847
2848
2849
2851
2853
2856
2860
2861
2871
2873
2874
2875
2876
2877
2878
2884
2886
2889
2891
2892
2895
2896
2897
2899
2900
2902
2903
2904
2905
2907
2908
2909
2910
2911
2914
2916
2918
2926
2930
2931
2933
2938
2939
2940
2943
2945
2947
2948
2949
2952
2954
2963
2964
2974
2975
2977
2980
2981
2983
2984
2989
2990
2991
2993
2998
3000
3002
3003
3005
3006
3009
3011
3014
3016
3017
3018
3019
3021
3024
3027
3034
3035
3037
3043
3044
3045
3047
3054
3057
3060
3062
3063
3064
3068
3071
3073
3075
3078
3079
3081
3083
3085
3086
3087
3088
3089
3090
3093
3095
3096
3097
3100
3101
3103
3104
3107
3108
3110
3113
3116
3119
3120
3121
3122
3123
3126
3127
3128
3130
3132
3133
3138
3139
3142
3143
3144
3145
3146
3147
3148
3156
3157
3160
3161
3163
3164
3166
3167
3168
3171
3174
3175
3176
3178
3181
3182
3183
3185
3186
3187
3190
3192
3193
3194
3195
3196
3197
3199
3200
3201
3202
3203
3204
3205
3206
3208
3209
3210
3212
3214
3215
3216
3217
3218
3220
3223
3224
3225
3226
3227
3229
3230
3233
3234
3235
3236
3237
3239
3240
3241
3244
3245
3246
3247
3248
3249
3250
3254
3255
3257
3258
3259
3260
3261
3265
3270
3281
3282
3285
3286
3287
3288
3289
3292
3293
3297
3304
3305
3307
3313
3315
3316
3318
3319
3320
3321
3322
3323
3324
3327
3328
3330
3336
3337
3340
3342
3343
3346
3347
3352
3353
3359
3361
3366
3368
3369
3370
3371
3373
3374
3376
3380
3381
3382
3384
3388
3389
3390
3393
3394
3395
3397
3399
3403
3404
3407
3408
3410
3411
3413
3415
3417
3418
3419
3422
3429
3430
3432
3434
3435
3436
3438
3442
3445
3448
3450
3451
3452
3453
3456
3457
3461
3464
3465
3473
3476
3477
3478
3479
3480
3482
3483
3484
3485
3486
3490
3497
3499
3501
3502
3503
3505
3506
3507
3509
3510
3511
3512
3513
3514
3515
3516
3519
3520
3525
3526
3529
3530
3532
3536
3538
3546
3547
3552
3554
3556
3565
3567
3568
3569
3572
3574
3577
3580
3581
3583
3584
3585
3587
3590
3591
3592
3593
3595
3596
3598
3599
3600
3601
3602
3603
3604
3605
3607
3608
3609
3610
3611
3614
3616
3617
3621
3622
3625
3627
3628
3630
3631
3633
3635
3636
3638
3640
3652
3655
3656
3657
3659
3660
3662
3663
3665
3668
3671
3672
3673
3677
3680
3681
3685
3690
3692
3693
3694
3695
3696
3697
3698
3700
3701
3702
3705
3706
3707
3708
3710
3715
3717
3720
3723
3725
3727
3731
3734
3740
3743
3744
3745
3746
3747
3748
3749
3750
3755
3757
3763
3764
3768
3769
3771
3773
3777
3780
3782
3784
3788
3789
3792
3801
3804
3806
3808
3810
3813
3820
3821
3823
3825
3826
3828
3830
3832
3837
3843
3847
3849
3850
3851
3855
3856
3858
3859
3860
3861
3862
3863
3864
3865
3866
3867
3868
3869
3870
3871
3873
3874
3876
3877
3883
3885
3888
3889
3890
3892
3894
3896
3897
3899
3900
3901
3905
3911
3918
3921
3922
3925
3929
3931
3932
3933
3939
3942
3946
3949
3951
3956
3957
3959
3968
3969
3970
3977
3983
3984
3986
3988
3989
3991
3994
3997
3999
4000
4001
4003
4004
4005
4006
4007
4008
4009
4011
4012
4014
4025
4027
4031
4032
4034
4038
4039
4040
4041
4043
4045
4046
4048
4049
4050
4058
4063
4067
4068
4072
4073
4076
4077
4078
4081
4083
4084
4088
4091
4093
4096
4099
4101
4109
4112
4117
4118
4119
4120
4122
4124
4125
4129
4133
4134
4135
4138
4146
4147
4150
4155
4156
4157
4160
4163
4164
4166
4169
4172
4174
4177
4178
4185
4186
4189
4190
4192
4195
4196
4199
4200
4201
4203
4205
4206
4207
4213
4214
4215
4217
4220
4221
4224
4225
4227
4229
4234
4237
4240
4245
4246
4247
4248
4249
4258
4261
4265
4266
4269
4272
4274
4277
4279
4282
4285
4286
4289
4290
4291
4297
4299
4301
4305
4308
4310
4315
4327
4328
4330
4333
4334
4336
4337
4339
4340
4341
4345
4352
4355
4357
4360
4362
4363
4364
4369
4374
4379
4381
4384
4387
4390
4403
4404
4407
4408
4411
4412
4418
4419
4422
4424
4426
4430
4435
4444
4450
4454
4455
4456
4460
4464
4471
4472
4474
4479
4481
4484
4485
4489
4490
4495
4497
4500
4502
4504
4505
4511
4512
4517
4518
4519
4522
4524
4525
4527
4529
4532
4534
4535
4538
4541
4544
4545
4546
4547
4553
4556
4560
4561
4562
4566
4569
4571
4579
4582
4583
4584
4591
4593
4595
4597
4598
4599
4603
4605
4607
4610
4613
4615
4617
4620
4628
4629
4630
4634
4638
4645
4651
4652
4655
4657
4658
4660
4661
4662
4663
4664
4666
4667
4669
4674
4675
4678
4680
4681
4685
4687
4688
4689
4690
4692
4694
4695
4699
4700
4701
4703
4704
4707
4708
4709
4711
4713
4715
4716
4718
4719
4720
4724
4728
4730
4731
4733
4734
4736
4737
4738
4739
4741
4745
4747
4750
4751
4752
4753
4755
4756
4759
4760
4768
4769
4771
4773
4774
4775
4776
4777
4780
4782
4791
4792
4796
4797
4799
4801
4804
4806
4810
4811
4812
4813
4814
4817
4818
4819
4820
4821
4823
4824
4825
4826
4827
4828
4835
4836
4837
4838
4839
4840
4842
4843
4844
4846
4848
4851
4854
4855
4861
4862
4863
4864
4865
4866
4867
4872
4873
4876
4877
4881
4882
4884
4890
4893
4894
4895
4901
4903
4904
4906
4907
4913
4917
4919
4922
4923
4926
4932
4940
4943
4944
4946
4948
4950
4952
4953
4955
4956
4958
4959
4961
4969
4971
4973
4974
4975
4976
4980
4982
4984
4988
4990
4992
4993
4996
4997
5002
5003
5011
5014
5019
5020
5021
5022
5023
5024
5026
5029
5030
5033
5034
5036
5037
5040
5041
5042
5044
5045
5047
5048
5049
5050
5052
5053
5055
5057
5059
5060
5063
5064
5069
5071
5072
5075
5076
5078
5079
5088
5092
5093
5097
5103
5107
5110
5113
5116
5117
5118
5120
5121
5123
5124
5126
5127
5130
5133
5134
5136
5137
5142
5143
5145
5146
5149
5152
5158
5159
5160
5164
5166
5169
5170
5172
5173
5174
5178
5179
5180
5182
5183
5184
5185
5186
5187
5188
5191
5193
5194
5195
5196
5205
5208
5209
5210
5211
5212
5213
5214
5216
5217
5220
5228
5230
5232
5234
5235
5237
5238
5239
5240
5245
5251
5252
5253
5254
5257
5259
5264
5267
5269
5270
5272
5273
5274
5276
5277
5280
5285
5289
5290
5291
5292
5293
5294
5295
5298
5300
5303
5304
5307
5311
5312
5314
5318
5320
5323
5327
5329
5332
5334
5336
5337
5338
5340
5343
5346
5347
5352
5353
5355
5356
5357
5358
5362
5364
5365
5367
5368
5370
5371
5372
5375
5379
5383
5385
5386
5387
5388
5389
5391
5392
5398
5400
5402
5403
5407
5410
5412
5413
5419
5421
5423
5424
5426
5427
5429
5431
5432
5434
5437
5438
5439
5441
5444
5447
5451
5452
5453
5455
5456
5458
5462
5463
5466
5468
5469
5472
5473
5475
5476
5478
5480
5482
5488
5491
5494
5496
5498
5500
5501
5503
5505
5507
5508
5509
5510
5512
5513
5515
5517
5519
5522
5525
5527
5529
5531
5532
5534
5540
5542
5543
5546
5547
5548
5553
5554
5555
5558
5559
5561
5563
5565
5567
5568
5569
5572
5574
5575
5577
5578
5579
5580
5585
5592
5594
5595
5598
5599
5600
5602
5606
5609
5612
5616
5617
5620
5623
5624
5626
5627
5630
5631
5632
5634
5635
5636
5646
5647
5649
5651
5657
5661
5666
5667
5671
5673
5680
5681
5683
5685
5691
5692
5693
5694
5695
5697
5698
5700
5701
5708
5709
5712
5716
5719
5720
5722
5723
5725
5726
5732
5733
5734
5735
5736
5739
5740
5741
5742
5744
5745
5747
5757
5758
5760
5761
5762
5766
5771
5772
5774
5776
5777
5778
5779
5780
5781
5787
5788
5792
5797
5803
5804
5805
5806
5811
5813
5816
5817
5824
5830
5834
5837
5840
5841
5842
5845
5846
5849
5850
5852
5854
5855
5856
5857
5858
5859
5860
5863
5864
5866
5867
5871
5872
5877
5879
5882
5885
5886
5888
5889
5892
5893
5895
5900
5901
5903
5908
5909
5912
5921
5923
5924
5925
5929
5932
5938
5940
5944
5947
5951
5953
5956
5960
5961
5962
5967
5968
5969
5972
5974
5977
5978
5981
5982
5985
5986
5989
5990
5993
5995
5997
6003
6004
6005
6006
6007
6014
6017
6019
6024
6026
6029
6030
6031
6033
6034
6039
6042
6043
6045
6046
6047
6048
6049
6051
6053
6058
6059
6061
6062
6064
6066
6069
6071
6076
6077
6078
6079
6080
6081
6083
6084
6088
6093
6094
6095
6096
6100
6103
6106
6112
6115
6122
6123
6129
6135
6137
6141
6143
6145
6146
6147
6155
6156
6157
6162
6163
6165
6167
6168
6169
6170
6171
6172
6174
6179
6182
6183
6184
6189
6191
6192
6196
6198
6206
6207
6208
6209
6211
6212
6214
6225
6228
6231
6232
6235
6237
6243
6249
6251
6258
6260
6262
6263
6264
6274
6278
6279
6280
6281
6283
6289
6291
6292
6293
6297
6303
6308
6312
6316
6318
6325
6327
6328
6332
6333
6338
6339
6342
6343
6349
6358
6360
6362
6364
6371
6375
6379
6390
6392
6397
6400
6402
6405
6406
6408
6409
6411
6412
6414
6415
6418
6419
6420
6421
6425
6428
6429
6433
6434
6436
6437
6439
6440
6443
6444
6445
6446
6447
6448
6455
6457
6458
6459
6460
6461
6464
6469
6475
6476
6477
6478
6481
6482
6483
6486
6488
6491
6496
6497
6499
6505
6507
6511
6512
6513
6517
6519
6521
6526
6527
6531
6532
6533
6534
6535
6539
6546
6549
6551
6554
6561
6565
6571
6581
6583
6588
6591
6592
6594
6598
6600
6602
6603
6605
6606
6607
6608
6609
6611
6612
6614
6618
6620
6621
6622
6624
6625
6627
6629
6630
6633
6634
6638
6640
6641
6644
6648
6650
6651
6657
6658
6661
6663
6666
6667
6668
6671
6672
6673
6674
6675
6679
6680
6681
6685
6686
6687
6688
6689
6694
6697
6699
6705
6706
6707
6710
6714
6715
6716
6723
6725
6727
6728
6729
6731
6733
6734
6736
6741
6742
6743
6744
6746
6749
6750
6751
6753
6754
6756
6762
6765
6767
6771
6772
6778
6780
6781
6783
6785
6786
6789
6790
6792
6793
6794
6796
6797
6798
6799
6801
6804
6808
6811
6812
6813
6818
6821
6824
6826
6829
6836
6845
6847
6848
6851
6853
6854
6858
6860
6861
6862
6865
6866
6867
6874
6878
6879
6880
6881
6882
6883
6885
6886
6889
6893
6895
6898
6899
6900
6901
6903
6907
6909
6910
6912
6913
6915
6916
6917
6918
6919
6921
6922
6925
6926
6928
6929
6930
6931
6932
6934
6935
6938
6939
6941
6944
6945
6948
6949
6950
6958
6960
6961
6964
6966
6967
6970
6971
6972
6974
6975
6976
6977
6978
6981
6984
6986
6987
6997
6998
6999
7001
7012
7013
7017
7018
7021
7022
7023
7025
7027
7028
7032
7033
7036
7037
7038
7039
7042
7043
7044
7046
7048
7050
7051
7052
7053
7054
7057
7059
7060
7061
7062
7065
7066
7067
7068
7069
7070
7071
7072
7074
7075
7077
7078
7079
7080
7081
7083
7085
7088
7090
7094
7095
7099
7100
7101
7103
7104
7107
7110
7112
7113
7114
7115
7116
7117
7118
7119
7120
7122
7123
7126
7128
7132
7134
7135
7138
7140
7142
7144
7145
7148
7149
7152
7154
7156
7157
7161
7162
7163
7164
7165
7167
7168
7171
7172
7173
7174
7175
7177
7178
7183
7185
7189
7190
7194
7195
7196
7197
7199
7200
7201
7205
7207
7209
7210
7213
7214
7223
7227
7228
7229
7234
7236
7237
7240
7244
7246
7247
7250
7251
7252
7254
7255
7259
7262
7265
7266
7270
7273
7276
7278
7281
7290
7292
7297
7301
7302
7306
7314
7318
7322
7324
7325
7326
7327
7328
7332
7334
7335
7338
7340
7344
7346
7348
7350
7352
7359
7361
7362
7365
7368
7369
7373
7375
7376
7377
7378
7380
7385
7386
7387
7389
7390
7392
7394
7396
7397
7399
7400
7401
7403
7407
7408
7410
7412
7416
7419
7424
7430
7431
7434
7441
7445
7446
7447
7449
7451
7452
7453
7458
7461
7462
7465
7466
7468
7470
7472
7473
7475
7476
7477
7481
7482
7485
7486
7489
7491
7492
7494
7495
7501
7502
7503
7505
7507
7509
7514
7518
7524
7527
7529
7532
7535
7539
7540
7545
7548
7550
7552
7554
7555
7558
7559
7564
7565
7568
7569
7577
7583
7588
7591
7593
7594
7598
7599
7603
7604
7606
7607
7608
7610
7615
7617
7620
7628
7632
7636
7637
7640
7646
7648
7649
7650
7651
7654
7656
7660
7664
7667
7669
7670
7672
7673
7677
7678
7680
7693
7695
7696
7701
7708
7711
7712
7714
7715
7716
7718
7722
7723
7728
7729
7730
7734
7735
7736
7737
7738
7741
7749
7750
7751
7753
7772
7774
7775
7776
7778
7781
7785
7789
7791
7793
7794
7795
7796
7798
7799
7802
7804
7805
7806
7807
7808
7809
7811
7814
7815
7818
7821
7824
7828
7841
7845
7847
7848
7852
7855
7859
7860
7862
7864
7867
7868
7872
7873
7876
7878
7879
7884
7891
7892
7898
7899
7904
7905
7908
7909
7912
7916
7917
7923
7924
7927
7930
7931
7934
7935
7936
7937
7938
7941
7948
7949
7950
7953
7955
7959
7960
7962
7964
7971
7973
7974
7976
7979
7980
7981
7984
7988
7990
7991
7993
7998
7999
8000
8001
8005
8011
8016
8021
8024
8025
8031
8036
8040
8043
8046
8047
8051
8053
8056
8061
8062
8067
8070
8074
8075
8076
8081
8083
8084
8091
8092
8094
8096
8098
8104
8105
8107
8109
8110
8115
8117
8119
8120
8121
8128
8130
8134
8135
8136
8140
8141
8145
8146
8148
8150
8154
8156
8157
8160
8162
8163
8164
8166
8167
8168
8174
8175
8179
8183
8184
8187
8194
8196
8201
8206
8209
8210
8212
8213
8216
8217
8218
8225
8226
8231
8232
8234
8236
8238
8239
8242
8243
8245
8246
8247
8248
8249
8250
8252
8253
8254
8255
8256
8262
8263
8265
8268
8269
8270
8272
8275
8276
8277
8280
8281
8282
8285
8287
8288
8290
8292
8294
8298
8300
8302
8303
8306
8308
8310
8312
8315
8316
8324
8326
8328
8332
8335
8337
8340
8342
8343
8349
8350
8352
8357
8364
8366
8368
8373
8374
8380
8385
8388
8389
8395
8396
8399
8403
8405
8406
8407
8408
8411
8414
8418
8421
8422
8424
8425
8427
8431
8435
8436
8437
8444
8445
8446
8452
8458
8461
8464
8467
8469
8470
8471
8474
8477
8478
8480
8481
8487
8489
8493
8494
8496
8498
8501
8507
8508
8517
8520
8521
8522
8525
8526
8527
8528
8529
8531
8535
8537
8538
8541
8542
8544
8548
8549
8550
8551
8552
8553
8554
8558
8559
8560
8563
8564
8565
8566
8567
8569
8570
8577
8578
8579
8581
8582
8583
8584
8585
8587
8588
8590
8592
8593
8598
8599
8601
8602
8603
8606
8607
8608
8611
8612
8613
8617
8618
8619
8621
8622
8624
8627
8629
8631
8632
8633
8635
8636
8637
8639
8642
8644
8646
8648
8650
8651
8654
8655
8656
8657
8658
8659
8663
8664
8667
8668
8670
8671
8673
8674
8677
8681
8686
8688
8690
8693
8694
8698
8705
8706
8707
8708
8710
8712
8715
8717
8719
8720
8721
8723
8724
8725
8726
8727
8728
8730
8732
8733
8734
8735
8736
8737
8738
8739
8740
8741
8743
8744
8745
8755
8758
8763
8765
8766
8769
8771
8772
8774
8776
8777
8781
8784
8786
8788
8790
8792
8795
8796
8797
8798
8799
8800
8812
8814
8815
8819
8823
8824
8827
8831
8832
8833
8839
8841
8844
8845
8851
8852
8853
8855
8856
8858
8862
8865
8866
8867
8869
8870
8872
8873
8875
8876
8879
8890
8892
8893
8895
8896
8898
8900
8901
8903
8904
8906
8907
8908
8910
8911
8914
8916
8918
8919
8920
8921
8923
8924
8925
8927
8928
8929
8930
8932
8933
8936
8937
8938
8944
8945
8948
8949
8950
8953
8954
8960
8962
8963
8964
8965
8968
8971
8972
8980
8984
8985
8987
8991
8992
8994
8996
8997
9000
9001
9002
9003
9005
9009
9013
9014
9015
9016
9018
9019
9021
9022
9023
9027
9031
9036
9039
9040
9041
9042
9048
9049
9051
9052
9054
9057
9058
9059
9062
9067
9069
9070
9071
9078
9079
9081
9083
9084
9087
9088
9089
9090
9093
9096
9097
9098
9099
9103
9105
9106
9108
9109
9110
9116
9118
9119
9120
9123
9124
9129
9131
9132
9133
9134
9135
9138
9139
9142
9143
9144
9145
9146
9148
9150
9151
9153
9155
9157
9161
9164
9167
9170
9171
9172
9175
9178
9181
9182
9185
9193
9199
9200
9203
9205
9206
9210
9211
9215
9216
9218
9228
9229
9232
9233
9235
9236
9238
9239
9240
9241
9245
9247
9249
9250
9252
9255
9262
9263
9270
9272
9278
9282
9283
9284
9287
9290
9291
9292
9293
9296
9299
9301
9302
9305
9307
9310
9313
9314
9315
9319
9321
9322
9323
9326
9327
9332
9335
9339
9341
9342
9344
9346
9349
9353
9354
9357
9358
9362
9366
9367
9368
9369
9371
9372
9373
9374
9376
9377
9378
9379
9381
9384
9390
9394
9395
9396
9397
9400
9401
9402
9414
9417
9421
9427
9428
9429
9430
9435
9437
9438
9440
9444
9445
9447
9450
9451
9453
9458
9460
9464
9465
9472
9475
9476
9481
9483
9485
9487
9495
9496
9497
9500
9501
9502
9503
9505
9506
9508
9511
9512
9516
9519
9522
9523
9524
9525
9526
9527
9538
9548
9549
9550
9552
9554
9559
9562
9564
9565
9566
9567
9572
9575
9577
9580
9585
9587
9604
9607
9611
9612
9613
9614
9615
9616
9618
9620
9623
9627
9629
9633
9635
9637
9638
9641
9643
9644
9648
9651
9653
9659
9661
9662
9664
9670
9671
9676
9689
9692
9697
9698
9703
9704
9705
9711
9712
9714
9716
9719
9721
9723
9725
9727
9729
9731
9732
9733
9737
9743
9748
9754
9755
9756
9757
9762
9763
9765
9766
9768
9772
9773
9774
9776
9777
9778
9779
9781
9783
9785
9788
9801
9802
9804
9807
9810
9813
9815
9819
9826
9827
9829
9830
9831
9833
9835
9841
9842
9852
9855
9857
9861
9862
9866
9868
9871
9873
9874
9875
9878
9879
9880
9882
9883
9891
9893
9897
9902
9903
9905
9907
9918
9922
9923
9928
9930
9931
9933
9938
9940
9942
9944
9947
9948
9954
9955
9956
9959
9962
9963
9966
9969
9972
9975
9976
9978
9979
9981
9985
9986
9987
9988
9990
9992
9996
9998
9999
10002
10005
10009
10016
10019
10020
10021
10023
10029
10031
10033
10034
10038
10041
10042
10045
10048
10051
10052
10053
10057
10058
10060
10063
10064
10066
10067
10070
10072
10076
10078
10080
10081
10083
10086
10091
10093
10096
10097
10101
10103
10104
10105
10106
10107
10110
10113
10117
10121
10124
10129
10131
10132
10135
10136
10141
10146
10147
10149
10150
10154
10155
10157
10159
10165
10169
10170
10174
10176
10178
10181
10190
10192
10194
10196
10197
10198
10201
10202
10203
10205
10207
10208
10210
10213
10214
10215
10216
10217
10218
10221
10222
10223
10224
10225
10234
10240
10241
10247
10252
10253
10255
10256
10259
10263
10267
10268
10271
10274
10275
10276
10277
10278
10279
10280
10283
10285
10286
10288
10290
10292
10293
10297
10299
10300
10301
10308
10309
10311
10313
10317
10320
10324
10325
10328
10335
10337
10338
10341
10344
10352
10353
10354
10355
10360
10361
10362
10364
10365
10367
10368
10369
10370
10373
10374
10375
10379
10380
10381
10384
10389
10390
10396
10397
10398
10411
10416
10417
10420
10421
10423
10430
10432
10434
10439
10440
10442
10443
10449
10450
10454
10456
10457
10460
10463
10466
10469
10470
10473
10475
10476
10478
10480
10482
10483
10484
10487
10491
10492
10496
10497
10499
10500
10501
10502
10505
10506
10508
10513
10514
10515
10523
10525
10526
10527
10528
10529
10531
10534
10535
10539
10540
10542
10544
10545
10546
10548
10552
10558
10565
10566
10571
10573
10574
10576
10579
10583
10584
10588
10589
10592
10593
10594
10597
10598
10600
10604
10605
10606
10607
10608
10611
10612
10615
10617
10618
10624
10626
10628
10630
10633
10634
10637
10638
10639
10640
10642
10643
10644
10645
10646
10647
10648
10650
10652
10653
10654
10657
10658
10659
10660
10663
10664
10666
10668
10673
10675
10677
10679
10682
10683
10685
10688
10689
10691
10694
10695
10696
10697
10698
10699
10700
10702
10703
10706
10707
10714
10718
10721
10722
10723
10725
10728
10730
10735
10739
10742
10746
10747
10748
10749
10750
10751
10755
10756
10759
10760
10761
10763
10764
10765
10767
10768
10769
10771
10772
10773
10774
10776
10778
10780
10781
10782
10783
10784
10786
10798
10799
10801
10802
10806
10807
10812
10813
10815
10817
10821
10826
10827
10830
10833
10834
10835
10836
10838
10839
10842
10843
10846
10855
10857
10864
10865
10870
10872
10881
10883
10885
10886
10892
10895
10898
10907
10909
10910
10917
10919
10922
10923
10925
10927
10928
10930
10934
10935
10936
10937
10938
10939
10940
10941
10943
10945
10946
10948
10951
10952
10953
10956
10957
10961
10964
10965
10970
10977
10978
10979
10981
10983
10985
10986
10989
10990
10994
10996
10997
10999
11002
11005
11006
11008
11009
11015
11016
11025
11026
11027
11028
11035
11039
11041
11042
11044
11049
11051
11052
11056
11060
11061
11062
11064
11065
11066
11075
11076
11081
11085
11086
11087
11091
11093
11094
11095
11100
11106
11110
11115
11118
11120
11122
11124
11125
11126
11127
11128
11129
11130
11131
11132
11133
11134
11137
11146
11148
11149
11150
11151
11153
11154
11155
11160
11163
11164
11165
11171
11172
11174
11177
11179
11182
11183
11184
11185
11187
11189
11191
11195
11200
11201
11205
11207
11210
11220
11221
11227
11230
11232
11234
11235
11239
11243
11246
11247
11249
11250
11252
11254
11258
11264
11266
11270
11271
11272
11275
11284
11287
11288
11291
11292
11293
11297
11306
11307
11311
11317
11319
11322
11324
11333
11335
11336
11345
11347
11348
11349
11351
11353
11355
11356
11361
11363
11364
11365
11366
11368
11380
11381
11384
11392
11393
11396
11399
11401
11402
11403
11404
11405
11410
11411
11414
11417
11418
11419
11420
11425
11426
11432
11435
11439
11441
11445
11447
11450
11451
11454
11458
11459
11461
11462
11463
11464
11467
11468
11475
11476
11478
11479
11481
11488
11489
11490
11491
11495
11499
11500
11503
11504
11505
11506
11507
11509
11512
11513
11517
11521
11522
11523
11526
11527
11529
11532
11539
11540
11545
11548
11553
11555
11556
11558
11559
11560
11564
11566
11567
11572
11573
11576
11577
11580
11581
11582
11588
11594
11596
11598
11599
11600
11602
11605
11607
11610
11614
11616
11618
11620
11624
11629
11632
11635
11636
11641
11644
11649
11654
11655
11663
11669
11670
11671
11673
11674
11675
11677
11678
11681
11682
11688
11690
11695
11696
11698
11700
11702
11706
11707
11708
11709
11712
11713
11715
11716
11719
11720
11723
11724
11728
11730
11732
11733
11734
11740
11743
11744
11745
11749
11751
11752
11753
11754
11757
11758
11762
11771
11772
11774
11780
11782
11784
11789
11790
11792
11793
11794
11804
11808
11813
11817
11819
11820
11828
11830
11831
11832
11833
11835
11836
11837
11840
11842
11843
11845
11846
11848
11849
11850
11855
11857
11858
11861
11862
11863
11867
11872
11873
11875
11876
11878
11879
11880
11881
11883
11884
11885
11889
11891
11893
11900
11901
11904
11905
11906
11908
11909
11910
11911
11914
11919
11920
11922
11924
11925
11926
11927
11929
11930
11932
11934
11935
11938
11940
11941
11942
11950
11951
11954
11955
11956
11958
11963
11964
11969
11971
11972
11973
11975
11977
11982
11985
11986
11989
11992
11993
11994
11998
12000
12002
12003
12005
12008
12013
12015
12016
12017
12021
12022
12024
12026
12028
12029
12030
12032
12033
12034
12036
12037
12039
12044
12045
12049
12055
12057
12058
12060
12062
12064
12066
12067
12068
12069
12070
12072
12073
12074
12075
12076
12078
12079
12081
12082
12084
12085
12086
12087
12089
12092
12095
12098
12099
12100
12101
12103
12108
12109
12112
12117
12118
12121
12122
12123
12124
12125
12127
12131
12132
12133
12135
12136
12138
12146
12147
12148
12153
12154
12158
12159
12162
12164
12168
12169
12171
12172
12175
12176
12180
12181
12183
12188
12192
12195
12197
12200
12201
12202
12203
12204
12206
12209
12211
12213
12214
12215
12217
12219
12220
12221
12223
12224
12225
12227
12228
12229
12231
12232
12234
12235
12237
12239
12240
12241
12246
12249
12250
12251
12252
12254
12259
12261
12262
12263
12266
12267
12271
12272
12275
12276
12280
12283
12287
12288
12289
12290
12291
12292
12298
12299
12301
12306
12307
12310
12312
12314
12320
12321
12322
12325
12326
12328
12331
12332
12333
12334
12337
12338
12339
12340
12343
12344
12345
12346
12348
12349
12350
12356
12357
12358
12359
12360
12361
12363
12365
12373
12376
12378
12383
12384
12386
12387
12391
12392
12393
12394
12396
12397
12399
12400
12402
12407
12409
12410
12411
12412
12413
12415
12416
12418
12422
12423
12426
12428
12435
12436
12437
12438
12443
12444
12446
12449
12451
12452
12453
12454
12456
12457
12460
12462
12466
12467
12468
12469
12471
12473
12474
12475
12478
12480
12481
12483
12484
12486
12488
12489
12491
12492
12493
12497
12500
12503
12505
12507
12509
12510
12512
12514
12515
12516
12523
12525
12526
12527
12529
12530
12531
12535
12540
12541
12545
12546
12551
12553
12556
12557
12560
12568
12569
12570
12572
12577
12585
12586
12587
12590
12594
12596
12599
12600
12603
12605
12608
12609
12611
12612
12613
12614
12618
12620
12621
12624
12625
12627
12628
12637
12638
12639
12642
12643
12644
12647
12648
12649
12651
12654
12655
12657
12663
12664
12672
12674
12675
12680
12681
12682
12683
12684
12687
12693
12694
12695
12696
12697
12698
12699
12702
12715
12716
12717
12718
12719
12721
12734
12735
12736
12738
12741
12742
12745
12746
12750
12751
12755
12756
12757
12758
12759
12761
12763
12764
12766
12769
12775
12776
12779
12782
12783
12789
12790
12792
12794
12797
12799
12800
12801
12806
12808
12809
12811
12814
12815
12818
12819
12821
12822
12826
12831
12832
12833
12836
12837
12838
12841
12845
12846
12849
12851
12853
12854
12855
12856
12861
12864
12870
12871
12873
12874
12877
12879
12880
12883
12884
12887
12889
12891
12893
12894
12895
12896
12898
12899
12901
12902
12903
12904
12906
12908
12909
12910
12916
12917
12922
12923
12924
12925
12926
12932
12933
12934
12938
12940
12946
12948
12953
12955
12956
12961
12962
12963
12974
12979
12981
12983
12985
12990
12991
12992
12994
12995
12996
13000
13007
13009
13011
13013
13014
13015
13017
13018
13022
13023
13024
13027
13028
13031
13033
13034
13035
13040
13047
13048
13052
13053
13055
13057
13063
13064
13067
13068
13070
13075
13082
13083
13085
13091
13092
13093
13097
13099
13101
13105
13107
13108
13110
13118
13119
13122
13123
13125
13126
13130
13135
13138
13140
13152
13153
13155
13159
13161
13165
13167
13175
13177
13182
13184
13185
13186
13187
13189
13190
13192
13193
13194
13198
13201
13205
13209
13211
13212
13214
13215
13219
13220
13222
13224
13225
13226
13227
13232
13243
13244
13249
13253
13254
13259
13261
13263
13265
13268
13273
13276
13278
13280
13283
13286
13288
13298
13299
13300
13301
13303
13304
13305
13306
13310
13312
13314
13317
13319
13321
13324
13330
13331
13332
13334
13344
13350
13354
13359
13360
13363
13364
13367
13370
13372
13376
13377
13387
13389
13394
13396
13397
13399
13407
13412
13415
13417
13418
13420
13425
13426
13428
13433
13436
13438
13439
13441
13447
13448
13451
13460
13465
13466
13467
13472
13482
13485
13486
13487
13488
13489
13491
13493
13494
13495
13497
13500
13501
13502
13503
13505
13508
13511
13513
13514
13515
13516
13520
13521
13522
13523
13526
13535
13536
13539
13540
13541
13542
13544
13545
13546
13547
13549
13550
13551
13552
13553
13554
13560
13565
13569
13570
13572
13574
13576
13577
13578
13579
13580
13581
13582
13583
13585
13587
13589
13590
13597
13601
13606
13608
13610
13611
13612
13613
13615
13616
13618
13630
13631
13632
13635
13646
13648
13649
13651
13654
13656
13660
13662
13663
13665
13667
13668
13669
13670
13672
13673
13676
13680
13681
13682
13686
13701
13703
13705
13706
13707
13711
13714
13723
13724
13726
13727
13736
13738
13744
13745
13747
13748
13750
13754
13755
13761
13762
13763
13764
13765
13768
13770
13772
13773
13775
13777
13778
13781
13782
13785
13786
13787
13789
13791
13792
13799
13803
13804
13805
13808
13810
13812
13814
13815
13820
13821
13822
13824
13828
13829
13835
13837
13838
13843
13844
13845
13850
13851
13853
13857
13860
13861
13864
13866
13868
13869
13871
13872
13873
13875
13876
13877
13881
13883
13884
13885
13887
13892
13894
13895
13903
13905
13908
13909
13911
13916
13918
13926
13928
13933
13936
13939
13947
13950
13952
13953
13960
13961
13962
13964
13968
13971
13972
13973
13980
13981
13982
13985
13986
13987
13991
13992
13993
13994
13995
13998
13999
14001
14002
14003
14004
14005
14007
14008
14009
14011
14012
14015
14016
14017
14019
14021
14023
14027
14029
14031
14033
14036
14038
14042
14045
14048
14050
14051
14054
14055
14057
14061
14063
14065
14066
14067
14071
14074
14075
14077
14082
14084
14085
14086
14088
14089
14092
14093
14094
14095
14096
14098
14099
14100
14101
14109
14110
14111
14112
14113
14114
14115
14118
14120
14121
14123
14124
14125
14126
14129
14130
14134
14135
14137
14138
14142
14143
14144
14148
14149
14151
14153
14156
14157
14158
14160
14161
14169
14171
14176
14185
14187
14188
14192
14193
14195
14197
14204
14205
14206
14207
14211
14215
14218
14219
14222
14223
14226
14227
14228
14232
14233
14237
14238
14241
14244
14246
14247
14249
14250
14252
14253
14254
14255
14258
14260
14261
14265
14266
14267
14268
14269
14274
14276
14279
14280
14281
14283
14288
14290
14292
14293
14298
14305
14309
14311
14314
14317
14319
14320
14325
14326
14328
14329
14330
14331
14334
14336
14337
14338
14340
14341
14345
14348
14349
14351
14353
14354
14355
14358
14359
14360
14367
14373
14374
14375
14377
14378
14379
14381
14386
14387
14395
14400
14401
14402
14403
14406
14407
14408
14409
14410
14412
14413
14414
14425
14426
14429
14430
14433
14435
14436
14441
14444
14445
14446
14448
14449
14450
14453
14454
14463
14464
14468
14469
14470
14474
14477
14482
14485
14488
14489
14490
14491
14496
14497
14499
14503
14508
14510
14516
14517
14518
14520
14525
14528
14531
14534
14535
14536
14538
14540
14543
14544
14549
14550
14551
14555
14559
14563
14565
14566
14568
14572
14573
14575
14576
14577
14578
14581
14583
14585
14587
14590
14594
14595
14596
14600
14605
14606
14607
14609
14611
14612
14615
14617
14624
14625
14628
14630
14631
14633
14634
14637
14638
14641
14645
14648
14650
14651
14653
14654
14660
14662
14664
14666
14667
14670
14671
14675
14679
14681
14685
14688
14692
14693
14694
14699
14705
14707
14711
14712
14716
14719
14722
14726
14730
14731
14732
14735
14736
14744
14748
14750
14751
14752
14764
14765
14766
14767
14768
14770
14771
14778
14780
14781
14793
14794
14797
14798
14799
14801
14805
14806
14807
14813
14814
14818
14820
14821
14824
14825
14826
14830
14838
14842
14844
14846
14847
14851
14852
14858
14861
14865
14866
14870
14872
14884
14887
14888
14889
14890
14891
14894
14896
14902
14903
14909
14910
14916
14918
14921
14929
14932
14934
14935
14936
14940
14942
14943
14944
14949
14950
14954
14957
14958
14959
14960
14962
14963
14964
14966
14968
14974
14979
14980
14983
14985
14989
14990
14992
14993
14994
14995
14997
15012
15013
15016
15018
15022
15025
15028
15032
15033
15038
15040
15043
15045
15049
15050
15056
15063
15066
15067
15068
15070
15071
15074
15078
15082
15083
15087
15089
15091
15094
15097
15098
15100
15104
15105
15106
15107
15110
15111
15112
15114
15117
15118
15119
15120
15121
15124
15126
15128
15129
15130
15131
15134
15139
15144
15145
15152
15157
15158
15159
15161
15166
15169
15178
15183
15188
15193
15197
15199
15200
15204
15205
15206
15212
15215
15219
15220
15226
15227
15228
15229
15232
15236
15239
15241
15242
15244
15245
15249
15250
15253
15254
15255
15256
15257
15258
15267
15270
15271
15273
15274
15275
15276
15278
15284
15291
15295
15296
15303
15304
15306
15309
15312
15314
15318
15319
15320
15321
15323
15324
15326
15330
15331
15339
15341
15342
15344
15345
15347
15351
15354
15358
15359
15360
15361
15364
15365
15371
15374
15375
15376
15380
15381
15383
15384
15391
15392
15394
15396
15407
15408
15409
15410
15411
15414
15415
15416
15420
15421
15422
15423
15424
15425
15429
15432
15434
15435
15440
15447
15449
15450
15452
15453
15454
15456
15457
15461
15462
15466
15468
15469
15470
15471
15472
15475
15478
15479
15480
15481
15484
15485
15491
15492
15493
15496
15497
15498
15499
15501
15504
15505
15509
15512
15514
15520
15523
15529
15531
15534
15535
15539
15540
15542
15545
15546
15547
15548
15549
15550
15551
15552
15554
15558
15559
15561
15564
15565
15568
15570
15572
15574
15575
15576
15579
15581
15583
15584
15585
15586
15589
15590
15592
15593
15594
15595
15598
15600
15602
15603
15604
15605
15606
15610
15611
15612
15614
15621
15623
15624
15626
15627
15632
15637
15640
15641
15643
15645
15646
15648
15649
15652
15654
15655
15658
15659
15660
15661
15662
15664
15666
15667
15668
15670
15679
15680
15681
15685
15686
15689
15691
15692
15694
15696
15697
15703
15704
15706
15707
15708
15710
15711
15713
15717
15719
15721
15722
15725
15729
15731
15733
15737
15738
15743
15744
15753
15754
15755
15756
15761
15763
15766
15769
15771
15773
15775
15780
15781
15782
15785
15787
15792
15793
15794
15796
15797
15800
15801
15803
15804
15805
15806
15808
15812
15813
15815
15816
15819
15821
15823
15824
15826
15827
15832
15838
15839
15840
15842
15844
15847
15852
15856
15857
15858
15859
15860
15863
15864
15866
15867
15873
15874
15876
15881
15884
15885
15886
15887
15889
15891
15895
15896
15897
15898
15899
15907
15910
15916
15917
15918
15921
15925
15931
15935
15937
15938
15939
15940
15941
15942
15943
15945
15946
15954
15956
15957
15959
15960
15964
15967
15968
15972
15973
15976
15978
15980
15985
15986
15987
15988
15990
15994
15995
15998
15999
16002
16003
16005
16008
16009
16011
16013
16015
16018
16024
16026
16029
16030
16031
16032
16035
16037
16039
16041
16042
16043
16048
16053
16054
16056
16058
16060
16061
16063
16067
16068
16073
16077
16078
16079
16082
16091
16102
16103
16113
16116
16117
16119
16120
16121
16122
16124
16127
16129
16130
16131
16135
16140
16141
16145
16152
16153
16154
16156
16159
16162
16164
16167
16169
16170
16172
16176
16177
16178
16179
16183
16184
16186
16188
16191
16199
16203
16205
16207
16212
16214
16215
16222
16223
16224
16225
16227
16228
16232
16236
16240
16246
16247
16256
16257
16260
16265
16267
16272
16274
16275
16276
16280
16281
16283
16284
16286
16288
16291
16304
16307
16308
16311
16314
16316
16319
16325
16326
16328
16330
16334
16335
16337
16341
16342
16343
16348
16352
16353
16356
16357
16359
16362
16364
16366
16369
16370
16372
16374
16379
16380
16381
16383
16386
16387
16388
16395
16396
16398
16403
16404
16405
16406
16408
16411
16416
16418
16419
16423
16431
16433
16437
16448
16450
16463
16465
16466
16476
16478
16482
16483
16484
16485
16492
16493
16501
16509
16510
16512
16513
16518
16521
16523
16524
16535
16538
16544
16546
16547
16550
16552
16556
16557
16561
16569
16576
16577
16583
16584
16586
16587
16588
16589
16593
16594
16596
16600
16602
16619
16621
16622
16623
16625
16627
16628
16630
16633
16636
16642
16643
16644
16646
16647
16648
16651
16652
16656
16657
16658
16660
16661
16665
16670
16672
16677
16678
16680
16683
16684
16686
16687
16688
16689
16692
16694
16695
16696
16706
16707
16708
16714
16715
16719
16720
16722
16724
16725
16727
16728
16732
16734
16735
16737
16740
16742
16747
16749
16750
16751
16753
16755
16761
16764
16765
16768
16769
16770
16774
16775
16777
16779
16788
16793
16794
16795
16796
16797
16798
16801
16803
16805
16810
16815
16821
16822
16824
16825
16832
16834
16835
16837
16838
16840
16845
16851
16854
16860
16862
16864
16865
16867
16868
16870
16872
16876
16877
16878
16879
16881
16882
16883
16884
16885
16886
16888
16890
16891
16892
16893
16894
16896
16897
16902
16903
16907
16911
16914
16915
16916
16917
16918
16919
16921
16922
16924
16925
16926
16927
16928
16929
16930
16932
16933
16935
16937
16940
16941
16942
16943
16944
16948
16952
16961
16962
16964
16966
16967
16971
16975
16976
16977
16982
16984
16985
16986
16987
16989
16991
16992
16993
16994
16997
16999
17000
17005
17006
17007
17011
17016
17017
17021
17025
17028
17032
17034
17051
17052
17060
17070
17072
17073
17075
17076
17077
17078
17080
17087
17088
17090
17092
17095
17097
17102
17105
17113
17121
17122
17123
17124
17125
17127
17130
17137
17138
17139
17144
17147
17149
17151
17154
17155
17157
17159
17163
17164
17170
17171
17172
17173
17174
17175
17177
17179
17180
17182
17185
17186
17189
17190
17193
17195
17198
17199
17200
17204
17210
17213
17214
17220
17224
17229
17230
17231
17237
17239
17245
17258
17260
17266
17267
17269
17273
17276
17284
17291
17294
17297
17298
17300
17302
17306
17309
17312
17314
17316
17321
17322
17323
17328
17329
17331
17332
17334
17338
17340
17341
17349
17350
17352
17354
17355
17356
17357
17358
17359
17361
17362
17363
17365
17368
17373
17374
17375
17377
17380
17381
17388
17391
17392
17393
17394
17401
17406
17407
17413
17417
17420
17423
17429
17430
17431
17433
17434
17437
17438
17444
17445
17450
17451
17454
17455
17459
17460
17465
17468
17469
17471
17474
17477
17478
17479
17480
17482
17484
17487
17488
17506
17507
17509
17511
17516
17518
17520
17522
17524
17527
17529
17532
17534
17537
17538
17541
17547
17549
17550
17551
17552
17553
17554
17555
17557
17558
17559
17561
17562
17567
17569
17575
17577
17578
17579
17580
17581
17583
17589
17591
17592
17593
17604
17606
17608
17610
17611
17612
17617
17618
17619
17621
17624
17625
17626
17633
17634
17636
17640
17641
17645
17647
17653
17656
17657
17659
17661
17666
17669
17671
17673
17676
17681
17684
17687
17690
17691
17692
17695
17696
17698
17700
17702
17704
17706
17707
17708
17710
17711
17712
17715
17719
17724
17726
17730
17734
17736
17738
17739
17742
17745
17746
17750
17752
17753
17754
17755
17762
17764
17766
17770
17774
17778
17782
17784
17788
17790
17794
17795
17801
17806
17808
17811
17812
17814
17816
17817
17818
17819
17820
17821
17822
17823
17824
17825
17826
17827
17828
17829
17830
17832
17836
17837
17839
17841
17845
17850
17851
17852
17856
17857
17860
17870
17873
17881
17885
17886
17889
17890
17891
17898
17900
17905
17909
17912
17913
17918
17925
17934
17943
17947
17953
17954
17958
17961
17965
17975
17976
17981
17982
17984
17988
17991
17995
17996
17999
18000
18001
18004
18005
18006
18007
18009
18011
18012
18022
18025
18026
18027
18028
18032
18034
18036
18040
18042
18045
18047
18049
18053
18057
18061
18066
18067
18072
18075
18076
18077
18080
18085
18087
18092
18094
18102
18104
18110
18113
18124
18126
18128
18134
18136
18141
18146
18153
18155
18158
18159
18161
18165
18167
18169
18176
18177
18178
18180
18186
18188
18192
18195
18198
18200
18203
18206
18215
18217
18219
18225
18226
18227
18228
18230
18233
18237
18239
18242
18243
18252
18256
18262
18266
18267
18268
18274
18277
18281
18284
18285
18286
18289
18297
18307
18309
18310
18313
18322
18323
18326
18329
18333
18344
18346
18348
18351
18352
18355
18356
18362
18364
18366
18367
18370
18371
18373
18378
18383
18384
18387
18389
18394
18397
18400
18401
18403
18404
18406
18408
18409
18414
18415
18416
18427
18430
18434
18435
18438
18440
18443
18452
18458
18460
18462
18463
18472
18473
18475
18485
18487
18488
18489
18493
18498
18504
18505
18509
18514
18515
18516
18518
18521
18525
18529
18538
18540
18544
18547
18555
18558
18565
18566
18568
18571
18572
18577
18581
18583
18584
18585
18587
18598
18602
18605
18606
18609
18613
18624
18628
18639
18641
18644
18645
18650
18652
18654
18655
18656
18657
18658
18659
18663
18666
18667
18672
18681
18682
18686
18687
18688
18697
18698
18705
18708
18712
18716
18717
18719
18720
18724
18725
18726
18728
18731
18734
18736
18737
18743
18749
18751
18753
18754
18757
18764
18765
18769
18774
18776
18780
18787
18797
18804
18807
18808
18809
18817
18818
18819
18824
18828
18829
18838
18841
18843
18845
18846
18853
18859
18866
18868
18870
18872
18875
18881
18885
18887
18888
18889
18891
18893
18895
18896
18898
18901
18902
18903
18907
18916
18920
18923
18924
18927
18931
18932
18933
18945
18947
18953
18957
18958
18959
18964
18965
18974
18984
18986
18987
18989
18991
18992
18994
18995
18996
18997
18998
19001
19004
19005
19006
19012
19016
19017
19021
19024
19025
19027
19029
19031
19032
19036
19039
19041
19048
19050
19052
19053
19057
19058
19059
19061
19065
19078
19080
19081
19086
19089
19101
19103
19104
19106
19107
19108
19121
19122
19126
19131
19132
19133
19138
19139
19141
19142
19143
19145
19154
19156
19158
19163
19164
19165
19166
19167
19169
19181
19183
19184
19186
19188
19192
19193
19195
19197
19209
19213
19218
19219
19225
19226
19227
19231
19235
19236
19237
19242
19243
19244
19246
19247
19252
19253
19255
19259
19260
19263
19265
19266
7
104
111
114
123
125
129
141
147
152
209
219
222
240
260
267
271
273
321
342
352
373
381
392
411
417
435
437
449
474
481
490
502
506
508
523
527
564
591
593
601
604
613
617
628
639
692
708
725
766
786
788
840
856
857
871
911
914
930
933
939
993
997
1045
1055
1075
1101
1139
1154
1173
1184
1196
1201
1220
1228
1234
1235
1241
1242
1270
1303
1311
1329
1332
1362
1389
1456
1475
1505
1519
1522
1581
1593
1597
1598
1604
1628
1642
1671
1680
1681
1698
1711
1736
1752
1790
1814
1821
1829
1844
1877
1886
1890
1902
1915
1917
1934
1957
1960
1973
2011
2037
2057
2062
2084
2085
2101
2103
2107
2112
2122
2135
2144
2152
2153
2163
2164
2168
2203
2227
2228
2234
2262
2283
2302
2331
2343
2350
2390
2402
2404
2415
2420
2425
2433
2450
2452
2483
2493
2496
2502
2520
2546
2555
2573
2576
2577
2624
2633
2650
2671
2679
2686
2695
2735
2738
2756
2777
2787
2788
2791
2798
2819
2850
2855
2862
2894
2901
2912
2913
2923
2925
2941
2950
2953
2962
2968
2973
2978
2979
2985
3012
3065
3080
3084
3105
3111
3118
3124
3149
3184
3198
3262
3267
3272
3290
3295
3301
3308
3338
3339
3344
3362
3375
3426
3431
3433
3437
3439
3449
3475
3487
3531
3535
3540
3589
3594
3606
3612
3613
3618
3632
3643
3646
3648
3649
3661
3666
3667
3670
3674
3675
3684
3691
3753
3761
3772
3779
3785
3798
3819
3829
3834
3844
3845
3853
3887
3903
3912
3927
3935
3936
3938
3955
3960
3975
3978
3981
3987
3990
4013
4016
4022
4044
4057
4070
4103
4104
4128
4130
4145
4152
4154
4158
4159
4167
4168
4176
4184
4188
4193
4194
4197
4202
4210
4211
4231
4233
4236
4241
4250
4259
4264
4270
4276
4278
4284
4296
4318
4326
4338
4348
4350
4351
4356
4368
4375
4378
4388
4393
4401
4429
4431
4432
4433
4436
4451
4453
4458
4459
4465
4466
4470
4473
4483
4486
4491
4493
4498
4507
4509
4515
4530
4548
4549
4555
4557
4558
4564
4567
4578
4581
4587
4588
4589
4602
4606
4616
4621
4631
4640
4647
4650
4696
4697
4706
4735
4740
4748
4758
4762
4766
4767
4779
4800
4815
4830
4847
4858
4859
4869
4870
4871
4883
4886
4887
4892
4897
4915
4916
4918
4920
4925
4928
4929
4939
4942
4954
4967
4994
4995
5000
5005
5007
5025
5027
5031
5035
5051
5080
5086
5087
5096
5104
5109
5111
5114
5115
5129
5141
5150
5167
5168
5190
5197
5199
5215
5229
5265
5305
5313
5326
5333
5339
5350
5351
5359
5378
5418
5433
5440
5489
5490
5526
5528
5533
5535
5551
5557
5583
5591
5593
5639
5656
5660
5668
5675
5676
5677
5678
5696
5704
5710
5750
5751
5753
5763
5790
5795
5807
5812
5818
5833
5838
5843
5851
5874
5878
5898
5906
5907
5928
5934
5935
5936
5943
5958
5964
5970
5975
5994
6000
6012
6050
6073
6082
6092
6097
6098
6104
6105
6107
6108
6119
6120
6128
6138
6142
6151
6152
6158
6193
6194
6195
6197
6202
6204
6205
6216
6217
6223
6234
6236
6242
6244
6245
6253
6256
6261
6284
6288
6290
6315
6322
6329
6346
6348
6354
6357
6359
6363
6376
6377
6378
6381
6387
6388
6393
6394
6395
6396
6427
6441
6468
6472
6484
6493
6494
6506
6516
6518
6525
6536
6537
6542
6545
6572
6573
6577
6590
6596
6597
6601
6604
6613
6616
6632
6637
6642
6646
6647
6656
6662
6676
6677
6678
6691
6698
6704
6708
6711
6712
6718
6721
6735
6740
6760
6761
6768
6777
6782
6802
6807
6814
6832
6840
6841
6842
6850
6852
6863
6872
6873
6884
6891
6896
6924
6927
6937
6963
6968
6980
6994
7014
7055
7058
7091
7125
7130
7133
7136
7150
7151
7155
7160
7181
7203
7206
7208
7261
7264
7286
7291
7295
7299
7304
7305
7308
7310
7311
7329
7341
7349
7355
7356
7358
7360
7364
7366
7402
7405
7417
7436
7455
7456
7460
7474
7488
7490
7497
7499
7508
7511
7516
7519
7521
7525
7528
7536
7547
7549
7553
7556
7557
7563
7574
7575
7578
7580
7586
7590
7601
7612
7647
7653
7655
7661
7665
7674
7682
7684
7685
7689
7690
7697
7698
7707
7709
7719
7720
7725
7732
7740
7752
7759
7763
7764
7767
7768
7773
7780
7783
7784
7788
7797
7820
7831
7834
7838
7846
7853
7856
7858
7880
7885
7886
7887
7890
7896
7897
7907
7913
7914
7919
7925
7952
7956
7989
8002
8009
8013
8017
8018
8019
8023
8027
8037
8050
8055
8059
8060
8064
8066
8078
8079
8080
8085
8095
8099
8122
8127
8152
8153
8155
8172
8177
8178
8181
8188
8189
8190
8205
8222
8228
8257
8258
8261
8264
8267
8271
8274
8278
8283
8291
8293
8295
8299
8301
8309
8311
8319
8327
8333
8339
8341
8344
8345
8347
8358
8361
8367
8371
8376
8383
8384
8393
8397
8401
8402
8409
8417
8426
8430
8434
8443
8453
8455
8483
8486
8491
8495
8499
8506
8509
8516
8546
8555
8556
8562
8568
8572
8573
8591
8596
8604
8630
8652
8701
8729
8779
8783
8787
8804
8805
8811
8826
8843
8848
8849
8864
8884
8894
8902
8905
8909
8934
8935
8970
8973
8975
8986
8989
9006
9007
9035
9038
9064
9076
9077
9082
9101
9115
9125
9152
9156
9158
9168
9184
9186
9195
9204
9209
9226
9230
9237
9251
9256
9259
9267
9271
9273
9281
9289
9312
9345
9398
9399
9409
9411
9418
9423
9424
9468
9488
9489
9507
9531
9532
9533
9534
9535
9540
9546
9555
9573
9574
9579
9584
9588
9591
9598
9599
9600
9609
9649
9652
9668
9687
9691
9707
9713
9728
9734
9759
9760
9770
9782
9791
9794
9797
9799
9800
9803
9805
9809
9811
9817
9820
9823
9825
9837
9844
9854
9860
9864
9867
9869
9872
9876
9881
9887
9889
9898
9899
9901
9909
9911
9913
9915
9926
9934
9936
9941
9949
9964
9973
9974
9983
9991
10001
10008
10035
10037
10039
10047
10062
10068
10071
10075
10114
10126
10134
10143
10151
10175
10186
10187
10195
10227
10230
10244
10245
10246
10257
10270
10282
10298
10304
10319
10322
10331
10340
10342
10346
10356
10358
10376
10386
10401
10402
10404
10422
10424
10428
10435
10436
10445
10451
10453
10471
10481
10485
10489
10509
10522
10537
10570
10582
10586
10595
10609
10614
10619
10629
10632
10636
10667
10674
10690
10701
10710
10713
10716
10717
10720
10752
10788
10800
10832
10841
10849
10853
10880
10900
10913
10916
10950
10955
10960
10962
10963
10966
10967
10968
10974
11018
11036
11038
11046
11050
11058
11072
11077
11089
11092
11099
11111
11116
11147
11156
11161
11166
11212
11214
11225
11256
11268
11282
11304
11305
11312
11329
11331
11337
11338
11352
11358
11359
11360
11367
11371
11372
11374
11375
11382
11400
11415
11433
11438
11442
11443
11444
11460
11471
11485
11493
11515
11516
11518
11524
11525
11530
11531
11535
11536
11537
11544
11546
11550
11554
11574
11579
11592
11593
11608
11627
11634
11645
11650
11652
11657
11658
11662
11665
11672
11684
11686
11687
11699
11714
11718
11726
11729
11735
11739
11741
11750
11761
11768
11773
11775
11776
11778
11779
11791
11796
11800
11803
11806
11809
11810
11811
11812
11821
11824
11838
11841
11851
11865
11869
11870
11871
11882
11890
11892
11895
11912
11913
11916
11917
11918
11921
11936
11937
11945
11957
11967
11976
12006
12040
12043
12048
12083
12090
12093
12096
12097
12104
12110
12111
12120
12126
12130
12142
12151
12155
12165
12173
12184
12190
12196
12198
12226
12238
12245
12255
12268
12282
12285
12293
12324
12354
12375
12389
12424
12427
12430
12431
12440
12442
12455
12464
12470
12476
12485
12490
12508
12522
12533
12537
12538
12550
12561
12566
12573
12574
12575
12593
12629
12631
12652
12665
12666
12679
12692
12724
12728
12732
12771
12773
12774
12785
12787
12793
12802
12803
12812
12813
12823
12828
12830
12842
12843
12848
12850
12852
12858
12859
12863
12878
12890
12918
12920
12921
12943
12954
12958
12960
12968
12969
12970
12971
12975
12977
12980
12984
12987
12988
12997
13002
13003
13010
13020
13036
13037
13039
13050
13054
13058
13060
13073
13088
13098
13100
13124
13145
13147
13148
13157
13166
13168
13169
13171
13176
13181
13199
13200
13203
13204
13210
13217
13229
13237
13242
13246
13255
13256
13258
13282
13285
13289
13292
13294
13325
13329
13338
13343
13347
13349
13351
13355
13358
13368
13371
13373
13382
13390
13391
13406
13409
13410
13411
13419
13424
13432
13435
13443
13444
13449
13455
13457
13458
13459
13461
13464
13468
13471
13473
13475
13477
13478
13481
13490
13492
13507
13512
13517
13518
13532
13537
13568
13584
13594
13595
13598
13604
13605
13607
13624
13626
13636
13639
13640
13641
13645
13650
13657
13659
13666
13678
13679
13683
13697
13702
13709
13710
13713
13715
13716
13718
13725
13730
13733
13734
13735
13740
13746
13751
13753
13759
13769
13771
13774
13793
13798
13811
13813
13827
13832
13836
13840
13842
13846
13854
13855
13870
13882
13900
13901
13920
13921
13929
13930
13934
13946
13954
13957
14013
14020
14026
14090
14103
14105
14107
14108
14128
14133
14145
14166
14170
14183
14203
14217
14220
14221
14229
14240
14243
14248
14295
14297
14300
14303
14304
14306
14315
14323
14332
14344
14346
14362
14368
14369
14372
14388
14389
14391
14420
14431
14432
14480
14484
14492
14504
14506
14511
14512
14522
14523
14539
14553
14554
14582
14591
14598
14618
14622
14632
14642
14643
14644
14646
14656
14657
14674
14676
14678
14682
14684
14690
14697
14698
14700
14704
14713
14717
14783
14784
14795
14796
14804
14823
14829
14831
14833
14834
14850
14868
14869
14876
14895
14911
14917
14922
14924
14937
14939
14945
14946
14948
14951
14955
14973
14982
14991
14996
14998
14999
15000
15002
15004
15011
15014
15027
15034
15037
15051
15064
15072
15075
15079
15080
15084
15090
15099
15103
15109
15116
15122
15123
15132
15137
15138
15151
15153
15167
15168
15174
15187
15189
15190
15191
15234
15260
15266
15269
15279
15282
15283
15287
15292
15294
15298
15300
15301
15327
15328
15343
15346
15349
15350
15368
15369
15372
15378
15386
15389
15390
15402
15418
15430
15437
15441
15444
15445
15464
15510
15543
15587
15622
15629
15633
15636
15638
15650
15653
15690
15709
15715
15723
15734
15745
15748
15749
15752
15758
15798
15802
15807
15814
15828
15831
15833
15837
15841
15848
15854
15861
15862
15865
15870
15871
15901
15909
15919
15950
15955
15958
15961
15962
15965
15975
15981
16001
16004
16010
16014
16017
16019
16023
16036
16070
16076
16085
16092
16094
16095
16096
16099
16101
16107
16108
16110
16111
16115
16125
16126
16134
16136
16144
16148
16157
16168
16171
16173
16185
16192
16195
16197
16201
16206
16210
16211
16216
16226
16235
16237
16239
16243
16244
16245
16269
16271
16273
16278
16279
16290
16294
16297
16318
16321
16324
16333
16336
16344
16345
16347
16349
16354
16355
16360
16368
16382
16390
16410
16415
16421
16432
16435
16436
16440
16442
16446
16451
16454
16470
16472
16473
16479
16480
16488
16495
16496
16498
16500
16517
16520
16525
16529
16531
16534
16558
16559
16562
16570
16579
16606
16609
16610
16611
16612
16613
16614
16617
16620
16626
16632
16653
16654
16668
16681
16685
16691
16701
16704
16716
16717
16739
16741
16745
16756
16757
16766
16772
16784
16790
16808
16809
16813
16814
16818
16841
16842
16844
16846
16848
16849
16850
16852
16858
16866
16875
16900
16905
16920
16945
16951
16954
16955
16956
16969
16980
16988
16998
17002
17004
17009
17015
17018
17026
17027
17033
17037
17045
17047
17050
17053
17057
17059
17061
17064
17067
17071
17082
17096
17110
17111
17116
17120
17126
17135
17136
17142
17153
17156
17192
17194
17203
17211
17222
17223
17226
17233
17238
17240
17241
17242
17249
17251
17252
17263
17264
17274
17281
17282
17288
17303
17304
17313
17315
17317
17335
17339
17342
17348
17364
17366
17369
17372
17376
17378
17379
17385
17387
17399
17404
17410
17416
17419
17421
17422
17424
17436
17439
17440
17456
17457
17463
17473
17489
17491
17492
17495
17496
17498
17499
17500
17513
17540
17544
17566
17571
17585
17614
17622
17627
17637
17638
17642
17643
17649
17651
17652
17664
17675
17678
17679
17701
17705
17716
17720
17727
17740
17747
17749
17757
17765
17771
17786
17787
17796
17799
17803
17809
17848
17849
17863
17880
17892
17894
17895
17897
17899
17901
17910
17914
17915
17920
17922
17924
17926
17927
17930
17931
17932
17938
17946
17955
17969
17972
17978
17983
17992
17993
17994
18013
18014
18015
18017
18018
18021
18024
18041
18046
18052
18054
18056
18065
18078
18086
18091
18095
18100
18106
18112
18123
18142
18143
18145
18149
18154
18156
18157
18162
18163
18174
18179
18182
18183
18205
18208
18216
18218
18221
18222
18224
18234
18235
18241
18249
18259
18261
18272
18275
18278
18290
18298
18299
18301
18303
18308
18312
18314
18316
18317
18325
18330
18338
18339
18353
18358
18368
18369
18374
18375
18377
18381
18393
18396
18405
18407
18410
18419
18421
18422
18423
18426
18428
18429
18431
18437
18439
18441
18447
18451
18457
18464
18468
18471
18474
18490
18492
18496
18497
18506
18507
18511
18519
18523
18532
18537
18539
18542
18543
18550
18552
18562
18563
18564
18570
18574
18575
18576
18588
18591
18592
18599
18600
18608
18610
18611
18616
18619
18625
18635
18637
18638
18643
18648
18662
18670
18673
18684
18694
18700
18703
18704
18706
18709
18714
18739
18744
18745
18756
18759
18763
18766
18768
18772
18773
18782
18785
18790
18792
18802
18803
18805
18813
18822
18833
18849
18856
18860
18862
18869
18871
18880
18882
18909
18915
18919
18934
18938
18939
18949
18952
18962
18963
18968
18969
18970
18975
18976
18979
18982
18999
19000
19028
19033
19034
19038
19044
19051
19056
19064
19066
19068
19071
19085
19087
19093
19098
19099
19102
19111
19112
19115
19116
19118
19120
19124
19125
19128
19135
19146
19151
19153
19157
19174
19187
19189
19196
19201
19203
19212
19214
19224
19229
19234
19245
19250
19254
7
7
7
104
104
104
111
111
111
114
114
114
123
123
123
125
125
125
129
129
129
141
141
141
147
147
147
152
152
152
209
209
209
219
219
219
222
222
222
240
240
240
260
260
260
267
267
267
271
271
271
273
273
273
321
321
321
342
342
342
352
352
352
373
373
373
381
381
381
392
392
392
411
411
411
417
417
417
435
435
435
437
437
437
449
449
449
474
474
474
481
481
481
490
490
490
502
502
502
506
506
506
508
508
508
523
523
523
527
527
527
564
564
564
591
591
591
593
593
593
601
601
601
604
604
604
613
613
613
617
617
617
628
628
628
639
639
639
692
692
692
708
708
708
725
725
725
766
766
766
786
786
786
788
788
788
840
840
840
856
856
856
857
857
857
871
871
871
911
911
911
914
914
914
930
930
930
933
933
933
939
939
939
993
993
993
997
997
997
1045
1045
1045
1055
1055
1055
1075
1075
1075
1101
1101
1101
1139
1139
1139
1154
1154
1154
1173
1173
1173
1184
1184
1184
1196
1196
1196
1201
1201
1201
1220
1220
1220
1228
1228
1228
1234
1234
1234
1235
1235
1235
1241
1241
1241
1242
1242
1242
1270
1270
1270
1303
1303
1303
1311
1311
1311
1329
1329
1329
1332
1332
1332
1362
1362
1362
1389
1389
1389
1456
1456
1456
1475
1475
1475
1505
1505
1505
1519
1519
1519
1522
1522
1522
1581
1581
1581
1593
1593
1593
1597
1597
1597
1598
1598
1598
1604
1604
1604
1628
1628
1628
1642
1642
1642
1671
1671
1671
1680
1680
1680
1681
1681
1681
1698
1698
1698
1711
1711
1711
1736
1736
1736
1752
1752
1752
1790
1790
1790
1814
1814
1814
1821
1821
1821
1829
1829
1829
1844
1844
1844
1877
1877
1877
1886
1886
1886
1890
1890
1890
1902
1902
1902
1915
1915
1915
1917
1917
1917
1934
1934
1934
1957
1957
1957
1960
1960
1960
1973
1973
1973
2011
2011
2011
2037
2037
2037
2057
2057
2057
2062
2062
2062
2084
2084
2084
2085
2085
2085
2101
2101
2101
2103
2103
2103
2107
2107
2107
2112
2112
2112
2122
2122
2122
2135
2135
2135
2144
2144
2144
2152
2152
2152
2153
2153
2153
2163
2163
2163
2164
2164
2164
2168
2168
2168
2203
2203
2203
2227
2227
2227
2228
2228
2228
2234
2234
2234
2262
2262
2262
2283
2283
2283
2302
2302
2302
2331
2331
2331
2343
2343
2343
2350
2350
2350
2390
2390
2390
2402
2402
2402
2404
2404
2404
2415
2415
2415
2420
2420
2420
2425
2425
2425
2433
2433
2433
2450
2450
2450
2452
2452
2452
2483
2483
2483
2493
2493
2493
2496
2496
2496
2502
2502
2502
2520
2520
2520
2546
2546
2546
2555
2555
2555
2573
2573
2573
2576
2576
2576
2577
2577
2577
2624
2624
2624
2633
2633
2633
2650
2650
2650
2671
2671
2671
2679
2679
2679
2686
2686
2686
2695
2695
2695
2735
2735
2735
2738
2738
2738
2756
2756
2756
2777
2777
2777
2787
2787
2787
2788
2788
2788
2791
2791
2791
2798
2798
2798
2819
2819
2819
2850
2850
2850
2855
2855
2855
2862
2862
2862
2894
2894
2894
2901
2901
2901
2912
2912
2912
2913
2913
2913
2923
2923
2923
2925
2925
2925
2941
2941
2941
2950
2950
2950
2953
2953
2953
2962
2962
2962
2968
2968
2968
2973
2973
2973
2978
2978
2978
2979
2979
2979
2985
2985
2985
3012
3012
3012
3065
3065
3065
3080
3080
3080
3084
3084
3084
3105
3105
3105
3111
3111
3111
3118
3118
3118
3124
3124
3124
3149
3149
3149
3184
3184
3184
3198
3198
3198
3262
3262
3262
3267
3267
3267
3272
3272
3272
3290
3290
3290
3295
3295
3295
3301
3301
3301
3308
3308
3308
3338
3338
3338
3339
3339
3339
3344
3344
3344
3362
3362
3362
3375
3375
3375
3426
3426
3426
3431
3431
3431
3433
3433
3433
3437
3437
3437
3439
3439
3439
3449
3449
3449
3475
3475
3475
3487
3487
3487
3531
3531
3531
3535
3535
3535
3540
3540
3540
3589
3589
3589
3594
3594
3594
3606
3606
3606
3612
3612
3612
3613
3613
3613
3618
3618
3618
3632
3632
3632
3643
3643
3643
3646
3646
3646
3648
3648
3648
3649
3649
3649
3661
3661
3661
3666
3666
3666
3667
3667
3667
3670
3670
3670
3674
3674
3674
3675
3675
3675
3684
3684
3684
3691
3691
3691
3753
3753
3753
3761
3761
3761
3772
3772
3772
3779
3779
3779
3785
3785
3785
3798
3798
3798
3819
3819
3819
3829
3829
3829
3834
3834
3834
3844
3844
3844
3845
3845
3845
3853
3853
3853
3887
3887
3887
3903
3903
3903
3912
3912
3912
3927
3927
3927
3935
3935
3935
3936
3936
3936
3938
3938
3938
3955
3955
3955
3960
3960
3960
3975
3975
3975
3978
3978
3978
3981
3981
3981
3987
3987
3987
3990
3990
3990
4013
4013
4013
4016
4016
4016
4022
4022
4022
4044
4044
4044
4057
4057
4057
4070
4070
4070
4103
4103
4103
4104
4104
4104
4128
4128
4128
4130
4130
4130
4145
4145
4145
4152
4152
4152
4154
4154
4154
4158
4158
4158
4159
4159
4159
4167
4167
4167
4168
4168
4168
4176
4176
4176
4184
4184
4184
4188
4188
4188
4193
4193
4193
4194
4194
4194
4197
4197
4197
4202
4202
4202
4210
4210
4210
4211
4211
4211
4231
4231
4231
4233
4233
4233
4236
4236
4236
4241
4241
4241
4250
4250
4250
4259
4259
4259
4264
4264
4264
4270
4270
4270
4276
4276
4276
4278
4278
4278
4284
4284
4284
4296
4296
4296
4318
4318
4318
4326
4326
4326
4338
4338
4338
4348
4348
4348
4350
4350
4350
4351
4351
4351
4356
4356
4356
4368
4368
4368
4375
4375
4375
4378
4378
4378
4388
4388
4388
4393
4393
4393
4401
4401
4401
4429
4429
4429
4431
4431
4431
4432
4432
4432
4433
4433
4433
4436
4436
4436
4451
4451
4451
4453
4453
4453
4458
4458
4458
4459
4459
4459
4465
4465
4465
4466
4466
4466
4470
4470
4470
4473
4473
4473
4483
4483
4483
4486
4486
4486
4491
4491
4491
4493
4493
4493
4498
4498
4498
4507
4507
4507
4509
4509
4509
4515
4515
4515
4530
4530
4530
4548
4548
4548
4549
4549
4549
4555
4555
4555
4557
4557
4557
4558
4558
4558
4564
4564
4564
4567
4567
4567
4578
4578
4578
4581
4581
4581
4587
4587
4587
4588
4588
4588
4589
4589
4589
4602
4602
4602
4606
4606
4606
4616
4616
4616
4621
4621
4621
4631
4631
4631
4640
4640
4640
4647
4647
4647
4650
4650
4650
4696
4696
4696
4697
4697
4697
4706
4706
4706
4735
4735
4735
4740
4740
4740
4748
4748
4748
4758
4758
4758
4762
4762
4762
4766
4766
4766
4767
4767
4767
4779
4779
4779
4800
4800
4800
4815
4815
4815
4830
4830
4830
4847
4847
4847
4858
4858
4858
4859
4859
4859
4869
4869
4869
4870
4870
4870
4871
4871
4871
4883
4883
4883
4886
4886
4886
4887
4887
4887
4892
4892
4892
4897
4897
4897
4915
4915
4915
4916
4916
4916
4918
4918
4918
4920
4920
4920
4925
4925
4925
4928
4928
4928
4929
4929
4929
4939
4939
4939
4942
4942
4942
4954
4954
4954
4967
4967
4967
4994
4994
4994
4995
4995
4995
5000
5000
5000
5005
5005
5005
5007
5007
5007
5025
5025
5025
5027
5027
5027
5031
5031
5031
5035
5035
5035
5051
5051
5051
5080
5080
5080
5086
5086
5086
5087
5087
5087
5096
5096
5096
5104
5104
5104
5109
5109
5109
5111
5111
5111
5114
5114
5114
5115
5115
5115
5129
5129
5129
5141
5141
5141
5150
5150
5150
5167
5167
5167
5168
5168
5168
5190
5190
5190
5197
5197
5197
5199
5199
5199
5215
5215
5215
5229
5229
5229
5265
5265
5265
5305
5305
5305
5313
5313
5313
5326
5326
5326
5333
5333
5333
5339
5339
5339
5350
5350
5350
5351
5351
5351
5359
5359
5359
5378
5378
5378
5418
5418
5418
5433
5433
5433
5440
5440
5440
5489
5489
5489
5490
5490
5490
5526
5526
5526
5528
5528
5528
5533
5533
5533
5535
5535
5535
5551
5551
5551
5557
5557
5557
5583
5583
5583
5591
5591
5591
5593
5593
5593
5639
5639
5639
5656
5656
5656
5660
5660
5660
5668
5668
5668
5675
5675
5675
5676
5676
5676
5677
5677
5677
5678
5678
5678
5696
5696
5696
5704
5704
5704
5710
5710
5710
5750
5750
5750
5751
5751
5751
5753
5753
5753
5763
5763
5763
5790
5790
5790
5795
5795
5795
5807
5807
5807
5812
5812
5812
5818
5818
5818
5833
5833
5833
5838
5838
5838
5843
5843
5843
5851
5851
5851
5874
5874
5874
5878
5878
5878
5898
5898
5898
5906
5906
5906
5907
5907
5907
5928
5928
5928
5934
5934
5934
5935
5935
5935
5936
5936
5936
5943
5943
5943
5958
5958
5958
5964
5964
5964
5970
5970
5970
5975
5975
5975
5994
5994
5994
6000
6000
6000
6012
6012
6012
6050
6050
6050
6073
6073
6073
6082
6082
6082
6092
6092
6092
6097
6097
6097
6098
6098
6098
6104
6104
6104
6105
6105
6105
6107
6107
6107
6108
6108
6108
6119
6119
6119
6120
6120
6120
6128
6128
6128
6138
6138
6138
6142
6142
6142
6151
6151
6151
6152
6152
6152
6158
6158
6158
6193
6193
6193
6194
6194
6194
6195
6195
6195
6197
6197
6197
6202
6202
6202
6204
6204
6204
6205
6205
6205
6216
6216
6216
6217
6217
6217
6223
6223
6223
6234
6234
6234
6236
6236
6236
6242
6242
6242
6244
6244
6244
6245
6245
6245
6253
6253
6253
6256
6256
6256
6261
6261
6261
6284
6284
6284
6288
6288
6288
6290
6290
6290
6315
6315
6315
6322
6322
6322
6329
6329
6329
6346
6346
6346
6348
6348
6348
6354
6354
6354
6357
6357
6357
6359
6359
6359
6363
6363
6363
6376
6376
6376
6377
6377
6377
6378
6378
6378
6381
6381
6381
6387
6387
6387
6388
6388
6388
6393
6393
6393
6394
6394
6394
6395
6395
6395
6396
6396
6396
6427
6427
6427
6441
6441
6441
6468
6468
6468
6472
6472
6472
6484
6484
6484
6493
6493
6493
6494
6494
6494
6506
6506
6506
6516
6516
6516
6518
6518
6518
6525
6525
6525
6536
6536
6536
6537
6537
6537
6542
6542
6542
6545
6545
6545
6572
6572
6572
6573
6573
6573
6577
6577
6577
6590
6590
6590
6596
6596
6596
6597
6597
6597
6601
6601
6601
6604
6604
6604
6613
6613
6613
6616
6616
6616
6632
6632
6632
6637
6637
6637
6642
6642
6642
6646
6646
6646
6647
6647
6647
6656
6656
6656
6662
6662
6662
6676
6676
6676
6677
6677
6677
6678
6678
6678
6691
6691
6691
6698
6698
6698
6704
6704
6704
6708
6708
6708
6711
6711
6711
6712
6712
6712
6718
6718
6718
6721
6721
6721
6735
6735
6735
6740
6740
6740
6760
6760
6760
6761
6761
6761
6768
6768
6768
6777
6777
6777
6782
6782
6782
6802
6802
6802
6807
6807
6807
6814
6814
6814
6832
6832
6832
6840
6840
6840
6841
6841
6841
6842
6842
6842
6850
6850
6850
6852
6852
6852
6863
6863
6863
6872
6872
6872
6873
6873
6873
6884
6884
6884
6891
6891
6891
6896
6896
6896
6924
6924
6924
6927
6927
6927
6937
6937
6937
6963
6963
6963
6968
6968
6968
6980
6980
6980
6994
6994
6994
7014
7014
7014
7055
7055
7055
7058
7058
7058
7091
7091
7091
7125
7125
7125
7130
7130
7130
7133
7133
7133
7136
7136
7136
7150
7150
7150
7151
7151
7151
7155
7155
7155
7160
7160
7160
7181
7181
7181
7203
7203
7203
7206
7206
7206
7208
7208
7208
7261
7261
7261
7264
7264
7264
7286
7286
7286
7291
7291
7291
7295
7295
7295
7299
7299
7299
7304
7304
7304
7305
7305
7305
7308
7308
7308
7310
7310
7310
7311
7311
7311
7329
7329
7329
7341
7341
7341
7349
7349
7349
7355
7355
7355
7356
7356
7356
7358
7358
7358
7360
7360
7360
7364
7364
7364
7366
7366
7366
7402
7402
7402
7405
7405
7405
7417
7417
7417
7436
7436
7436
7455
7455
7455
7456
7456
7456
7460
7460
7460
7474
7474
7474
7488
7488
7488
7490
7490
7490
7497
7497
7497
7499
7499
7499
7508
7508
7508
7511
7511
7511
7516
7516
7516
7519
7519
7519
7521
7521
7521
7525
7525
7525
7528
7528
7528
7536
7536
7536
7547
7547
7547
7549
7549
7549
7553
7553
7553
7556
7556
7556
7557
7557
7557
7563
7563
7563
7574
7574
7574
7575
7575
7575
7578
7578
7578
7580
7580
7580
7586
7586
7586
7590
7590
7590
7601
7601
7601
7612
7612
7612
7647
7647
7647
7653
7653
7653
7655
7655
7655
7661
7661
7661
7665
7665
7665
7674
7674
7674
7682
7682
7682
7684
7684
7684
7685
7685
7685
7689
7689
7689
7690
7690
7690
7697
7697
7697
7698
7698
7698
7707
7707
7707
7709
7709
7709
7719
7719
7719
7720
7720
7720
7725
7725
7725
7732
7732
7732
7740
7740
7740
7752
7752
7752
7759
7759
7759
7763
7763
7763
7764
7764
7764
7767
7767
7767
7768
7768
7768
7773
7773
7773
7780
7780
7780
7783
7783
7783
7784
7784
7784
7788
7788
7788
7797
7797
7797
7820
7820
7820
7831
7831
7831
7834
7834
7834
7838
7838
7838
7846
7846
7846
7853
7853
7853
7856
7856
7856
7858
7858
7858
7880
7880
7880
7885
7885
7885
7886
7886
7886
7887
7887
7887
7890
7890
7890
7896
7896
7896
7897
7897
7897
7907
7907
7907
7913
7913
7913
7914
7914
7914
7919
7919
7919
7925
7925
7925
7952
7952
7952
7956
7956
7956
7989
7989
7989
8002
8002
8002
8009
8009
8009
8013
8013
8013
8017
8017
8017
8018
8018
8018
8019
8019
8019
8023
8023
8023
8027
8027
8027
8037
8037
8037
8050
8050
8050
8055
8055
8055
8059
8059
8059
8060
8060
8060
8064
8064
8064
8066
8066
8066
8078
8078
8078
8079
8079
8079
8080
8080
8080
8085
8085
8085
8095
8095
8095
8099
8099
8099
8122
8122
8122
8127
8127
8127
8152
8152
8152
8153
8153
8153
8155
8155
8155
8172
8172
8172
8177
8177
8177
8178
8178
8178
8181
8181
8181
8188
8188
8188
8189
8189
8189
8190
8190
8190
8205
8205
8205
8222
8222
8222
8228
8228
8228
8257
8257
8257
8258
8258
8258
8261
8261
8261
8264
8264
8264
8267
8267
8267
8271
8271
8271
8274
8274
8274
8278
8278
8278
8283
8283
8283
8291
8291
8291
8293
8293
8293
8295
8295
8295
8299
8299
8299
8301
8301
8301
8309
8309
8309
8311
8311
8311
8319
8319
8319
8327
8327
8327
8333
8333
8333
8339
8339
8339
8341
8341
8341
8344
8344
8344
8345
8345
8345
8347
8347
8347
8358
8358
8358
8361
8361
8361
8367
8367
8367
8371
8371
8371
8376
8376
8376
8383
8383
8383
8384
8384
8384
8393
8393
8393
8397
8397
8397
8401
8401
8401
8402
8402
8402
8409
8409
8409
8417
8417
8417
8426
8426
8426
8430
8430
8430
8434
8434
8434
8443
8443
8443
8453
8453
8453
8455
8455
8455
8483
8483
8483
8486
8486
8486
8491
8491
8491
8495
8495
8495
8499
8499
8499
8506
8506
8506
8509
8509
8509
8516
8516
8516
8546
8546
8546
8555
8555
8555
8556
8556
8556
8562
8562
8562
8568
8568
8568
8572
8572
8572
8573
8573
8573
8591
8591
8591
8596
8596
8596
8604
8604
8604
8630
8630
8630
8652
8652
8652
8701
8701
8701
8729
8729
8729
8779
8779
8779
8783
8783
8783
8787
8787
8787
8804
8804
8804
8805
8805
8805
8811
8811
8811
8826
8826
8826
8843
8843
8843
8848
8848
8848
8849
8849
8849
8864
8864
8864
8884
8884
8884
8894
8894
8894
8902
8902
8902
8905
8905
8905
8909
8909
8909
8934
8934
8934
8935
8935
8935
8970
8970
8970
8973
8973
8973
8975
8975
8975
8986
8986
8986
8989
8989
8989
9006
9006
9006
9007
9007
9007
9035
9035
9035
9038
9038
9038
9064
9064
9064
9076
9076
9076
9077
9077
9077
9082
9082
9082
9101
9101
9101
9115
9115
9115
9125
9125
9125
9152
9152
9152
9156
9156
9156
9158
9158
9158
9168
9168
9168
9184
9184
9184
9186
9186
9186
9195
9195
9195
9204
9204
9204
9209
9209
9209
9226
9226
9226
9230
9230
9230
9237
9237
9237
9251
9251
9251
9256
9256
9256
9259
9259
9259
9267
9267
9267
9271
9271
9271
9273
9273
9273
9281
9281
9281
9289
9289
9289
9312
9312
9312
9345
9345
9345
9398
9398
9398
9399
9399
9399
9409
9409
9409
9411
9411
9411
9418
9418
9418
9423
9423
9423
9424
9424
9424
9468
9468
9468
9488
9488
9488
9489
9489
9489
9507
9507
9507
9531
9531
9531
9532
9532
9532
9533
9533
9533
9534
9534
9534
9535
9535
9535
9540
9540
9540
9546
9546
9546
9555
9555
9555
9573
9573
9573
9574
9574
9574
9579
9579
9579
9584
9584
9584
9588
9588
9588
9591
9591
9591
9598
9598
9598
9599
9599
9599
9600
9600
9600
9609
9609
9609
9649
9649
9649
9652
9652
9652
9668
9668
9668
9687
9687
9687
9691
9691
9691
9707
9707
9707
9713
9713
9713
9728
9728
9728
9734
9734
9734
9759
9759
9759
9760
9760
9760
9770
9770
9770
9782
9782
9782
9791
9791
9791
9794
9794
9794
9797
9797
9797
9799
9799
9799
9800
9800
9800
9803
9803
9803
9805
9805
9805
9809
9809
9809
9811
9811
9811
9817
9817
9817
9820
9820
9820
9823
9823
9823
9825
9825
9825
9837
9837
9837
9844
9844
9844
9854
9854
9854
9860
9860
9860
9864
9864
9864
9867
9867
9867
9869
9869
9869
9872
9872
9872
9876
9876
9876
9881
9881
9881
9887
9887
9887
9889
9889
9889
9898
9898
9898
9899
9899
9899
9901
9901
9901
9909
9909
9909
9911
9911
9911
9913
9913
9913
9915
9915
9915
9926
9926
9926
9934
9934
9934
9936
9936
9936
9941
9941
9941
9949
9949
9949
9964
9964
9964
9973
9973
9973
9974
9974
9974
9983
9983
9983
9991
9991
9991
10001
10001
10001
10008
10008
10008
10035
10035
10035
10037
10037
10037
10039
10039
10039
10047
10047
10047
10062
10062
10062
10068
10068
10068
10071
10071
10071
10075
10075
10075
10114
10114
10114
10126
10126
10126
10134
10134
10134
10143
10143
10143
10151
10151
10151
10175
10175
10175
10186
10186
10186
10187
10187
10187
10195
10195
10195
10227
10227
10227
10230
10230
10230
10244
10244
10244
10245
10245
10245
10246
10246
10246
10257
10257
10257
10270
10270
10270
10282
10282
10282
10298
10298
10298
10304
10304
10304
10319
10319
10319
10322
10322
10322
10331
10331
10331
10340
10340
10340
10342
10342
10342
10346
10346
10346
10356
10356
10356
10358
10358
10358
10376
10376
10376
10386
10386
10386
10401
10401
10401
10402
10402
10402
10404
10404
10404
10422
10422
10422
10424
10424
10424
10428
10428
10428
10435
10435
10435
10436
10436
10436
10445
10445
10445
10451
10451
10451
10453
10453
10453
10471
10471
10471
10481
10481
10481
10485
10485
10485
10489
10489
10489
10509
10509
10509
10522
10522
10522
10537
10537
10537
10570
10570
10570
10582
10582
10582
10586
10586
10586
10595
10595
10595
10609
10609
10609
10614
10614
10614
10619
10619
10619
10629
10629
10629
10632
10632
10632
10636
10636
10636
10667
10667
10667
10674
10674
10674
10690
10690
10690
10701
10701
10701
10710
10710
10710
10713
10713
10713
10716
10716
10716
10717
10717
10717
10720
10720
10720
10752
10752
10752
10788
10788
10788
10800
10800
10800
10832
10832
10832
10841
10841
10841
10849
10849
10849
10853
10853
10853
10880
10880
10880
10900
10900
10900
10913
10913
10913
10916
10916
10916
10950
10950
10950
10955
10955
10955
10960
10960
10960
10962
10962
10962
10963
10963
10963
10966
10966
10966
10967
10967
10967
10968
10968
10968
10974
10974
10974
11018
11018
11018
11036
11036
11036
11038
11038
11038
11046
11046
11046
11050
11050
11050
11058
11058
11058
11072
11072
11072
11077
11077
11077
11089
11089
11089
11092
11092
11092
11099
11099
11099
11111
11111
11111
11116
11116
11116
11147
11147
11147
11156
11156
11156
11161
11161
11161
11166
11166
11166
11212
11212
11212
11214
11214
11214
11225
11225
11225
11256
11256
11256
11268
11268
11268
11282
11282
11282
11304
11304
11304
11305
11305
11305
11312
11312
11312
11329
11329
11329
11331
11331
11331
11337
11337
11337
11338
11338
11338
11352
11352
11352
11358
11358
11358
11359
11359
11359
11360
11360
11360
11367
11367
11367
11371
11371
11371
11372
11372
11372
11374
11374
11374
11375
11375
11375
11382
11382
11382
11400
11400
11400
11415
11415
11415
11433
11433
11433
11438
11438
11438
11442
11442
11442
11443
11443
11443
11444
11444
11444
11460
11460
11460
11471
11471
11471
11485
11485
11485
11493
11493
11493
11515
11515
11515
11516
11516
11516
11518
11518
11518
11524
11524
11524
11525
11525
11525
11530
11530
11530
11531
11531
11531
11535
11535
11535
11536
11536
11536
11537
11537
11537
11544
11544
11544
11546
11546
11546
11550
11550
11550
11554
11554
11554
11574
11574
11574
11579
11579
11579
11592
11592
11592
11593
11593
11593
11608
11608
11608
11627
11627
11627
11634
11634
11634
11645
11645
11645
11650
11650
11650
11652
11652
11652
11657
11657
11657
11658
11658
11658
11662
11662
11662
11665
11665
11665
11672
11672
11672
11684
11684
11684
11686
11686
11686
11687
11687
11687
11699
11699
11699
11714
11714
11714
11718
11718
11718
11726
11726
11726
11729
11729
11729
11735
11735
11735
11739
11739
11739
11741
11741
11741
11750
11750
11750
11761
11761
11761
11768
11768
11768
11773
11773
11773
11775
11775
11775
11776
11776
11776
11778
11778
11778
11779
11779
11779
11791
11791
11791
11796
11796
11796
11800
11800
11800
11803
11803
11803
11806
11806
11806
11809
11809
11809
11810
11810
11810
11811
11811
11811
11812
11812
11812
11821
11821
11821
11824
11824
11824
11838
11838
11838
11841
11841
11841
11851
11851
11851
11865
11865
11865
11869
11869
11869
11870
11870
11870
11871
11871
11871
11882
11882
11882
11890
11890
11890
11892
11892
11892
11895
11895
11895
11912
11912
11912
11913
11913
11913
11916
11916
11916
11917
11917
11917
11918
11918
11918
11921
11921
11921
11936
11936
11936
11937
11937
11937
11945
11945
11945
11957
11957
11957
11967
11967
11967
11976
11976
11976
12006
12006
12006
12040
12040
12040
12043
12043
12043
12048
12048
12048
12083
12083
12083
12090
12090
12090
12093
12093
12093
12096
12096
12096
12097
12097
12097
12104
12104
12104
12110
12110
12110
12111
12111
12111
12120
12120
12120
12126
12126
12126
12130
12130
12130
12142
12142
12142
12151
12151
12151
12155
12155
12155
12165
12165
12165
12173
12173
12173
12184
12184
12184
12190
12190
12190
12196
12196
12196
12198
12198
12198
12226
12226
12226
12238
12238
12238
12245
12245
12245
12255
12255
12255
12268
12268
12268
12282
12282
12282
12285
12285
12285
12293
12293
12293
12324
12324
12324
12354
12354
12354
12375
12375
12375
12389
12389
12389
12424
12424
12424
12427
12427
12427
12430
12430
12430
12431
12431
12431
12440
12440
12440
12442
12442
12442
12455
12455
12455
12464
12464
12464
12470
12470
12470
12476
12476
12476
12485
12485
12485
12490
12490
12490
12508
12508
12508
12522
12522
12522
12533
12533
12533
12537
12537
12537
12538
12538
12538
12550
12550
12550
12561
12561
12561
12566
12566
12566
12573
12573
12573
12574
12574
12574
12575
12575
12575
12593
12593
12593
12629
12629
12629
12631
12631
12631
12652
12652
12652
12665
12665
12665
12666
12666
12666
12679
12679
12679
12692
12692
12692
12724
12724
12724
12728
12728
12728
12732
12732
12732
12771
12771
12771
12773
12773
12773
12774
12774
12774
12785
12785
12785
12787
12787
12787
12793
12793
12793
12802
12802
12802
12803
12803
12803
12812
12812
12812
12813
12813
12813
12823
12823
12823
12828
12828
12828
12830
12830
12830
12842
12842
12842
12843
12843
12843
12848
12848
12848
12850
12850
12850
12852
12852
12852
12858
12858
12858
12859
12859
12859
12863
12863
12863
12878
12878
12878
12890
12890
12890
12918
12918
12918
12920
12920
12920
12921
12921
12921
12943
12943
12943
12954
12954
12954
12958
12958
12958
12960
12960
12960
12968
12968
12968
12969
12969
12969
12970
12970
12970
12971
12971
12971
12975
12975
12975
12977
12977
12977
12980
12980
12980
12984
12984
12984
12987
12987
12987
12988
12988
12988
12997
12997
12997
13002
13002
13002
13003
13003
13003
13010
13010
13010
13020
13020
13020
13036
13036
13036
13037
13037
13037
13039
13039
13039
13050
13050
13050
13054
13054
13054
13058
13058
13058
13060
13060
13060
13073
13073
13073
13088
13088
13088
13098
13098
13098
13100
13100
13100
13124
13124
13124
13145
13145
13145
13147
13147
13147
13148
13148
13148
13157
13157
13157
13166
13166
13166
13168
13168
13168
13169
13169
13169
13171
13171
13171
13176
13176
13176
13181
13181
13181
13199
13199
13199
13200
13200
13200
13203
13203
13203
13204
13204
13204
13210
13210
13210
13217
13217
13217
13229
13229
13229
13237
13237
13237
13242
13242
13242
13246
13246
13246
13255
13255
13255
13256
13256
13256
13258
13258
13258
13282
13282
13282
13285
13285
13285
13289
13289
13289
13292
13292
13292
13294
13294
13294
13325
13325
13325
13329
13329
13329
13338
13338
13338
13343
13343
13343
13347
13347
13347
13349
13349
13349
13351
13351
13351
13355
13355
13355
13358
13358
13358
13368
13368
13368
13371
13371
13371
13373
13373
13373
13382
13382
13382
13390
13390
13390
13391
13391
13391
13406
13406
13406
13409
13409
13409
13410
13410
13410
13411
13411
13411
13419
13419
13419
13424
13424
13424
13432
13432
13432
13435
13435
13435
13443
13443
13443
13444
13444
13444
13449
13449
13449
13455
13455
13455
13457
13457
13457
13458
13458
13458
13459
13459
13459
13461
13461
13461
13464
13464
13464
13468
13468
13468
13471
13471
13471
13473
13473
13473
13475
13475
13475
13477
13477
13477
13478
13478
13478
13481
13481
13481
13490
13490
13490
13492
13492
13492
13507
13507
13507
13512
13512
13512
13517
13517
13517
13518
13518
13518
13532
13532
13532
13537
13537
13537
13568
13568
13568
13584
13584
13584
13594
13594
13594
13595
13595
13595
13598
13598
13598
13604
13604
13604
13605
13605
13605
13607
13607
13607
13624
13624
13624
13626
13626
13626
13636
13636
13636
13639
13639
13639
13640
13640
13640
13641
13641
13641
13645
13645
13645
13650
13650
13650
13657
13657
13657
13659
13659
13659
13666
13666
13666
13678
13678
13678
13679
13679
13679
13683
13683
13683
13697
13697
13697
13702
13702
13702
13709
13709
13709
13710
13710
13710
13713
13713
13713
13715
13715
13715
13716
13716
13716
13718
13718
13718
13725
13725
13725
13730
13730
13730
13733
13733
13733
13734
13734
13734
13735
13735
13735
13740
13740
13740
13746
13746
13746
13751
13751
13751
13753
13753
13753
13759
13759
13759
13769
13769
13769
13771
13771
13771
13774
13774
13774
13793
13793
13793
13798
13798
13798
13811
13811
13811
13813
13813
13813
13827
13827
13827
13832
13832
13832
13836
13836
13836
13840
13840
13840
13842
13842
13842
13846
13846
13846
13854
13854
13854
13855
13855
13855
13870
13870
13870
13882
13882
13882
13900
13900
13900
13901
13901
13901
13920
13920
13920
13921
13921
13921
13929
13929
13929
13930
13930
13930
13934
13934
13934
13946
13946
13946
13954
13954
13954
13957
13957
13957
14013
14013
14013
14020
14020
14020
14026
14026
14026
14090
14090
14090
14103
14103
14103
14105
14105
14105
14107
14107
14107
14108
14108
14108
14128
14128
14128
14133
14133
14133
14145
14145
14145
14166
14166
14166
14170
14170
14170
14183
14183
14183
14203
14203
14203
14217
14217
14217
14220
14220
14220
14221
14221
14221
14229
14229
14229
14240
14240
14240
14243
14243
14243
14248
14248
14248
14295
14295
14295
14297
14297
14297
14300
14300
14300
14303
14303
14303
14304
14304
14304
14306
14306
14306
14315
14315
14315
14323
14323
14323
14332
14332
14332
14344
14344
14344
14346
14346
14346
14362
14362
14362
14368
14368
14368
14369
14369
14369
14372
14372
14372
14388
14388
14388
14389
14389
14389
14391
14391
14391
14420
14420
14420
14431
14431
14431
14432
14432
14432
14480
14480
14480
14484
14484
14484
14492
14492
14492
14504
14504
14504
14506
14506
14506
14511
14511
14511
14512
14512
14512
14522
14522
14522
14523
14523
14523
14539
14539
14539
14553
14553
14553
14554
14554
14554
14582
14582
14582
14591
14591
14591
14598
14598
14598
14618
14618
14618
14622
14622
14622
14632
14632
14632
14642
14642
14642
14643
14643
14643
14644
14644
14644
14646
14646
14646
14656
14656
14656
14657
14657
14657
14674
14674
14674
14676
14676
14676
14678
14678
14678
14682
14682
14682
14684
14684
14684
14690
14690
14690
14697
14697
14697
14698
14698
14698
14700
14700
14700
14704
14704
14704
14713
14713
14713
14717
14717
14717
14783
14783
14783
14784
14784
14784
14795
14795
14795
14796
14796
14796
14804
14804
14804
14823
14823
14823
14829
14829
14829
14831
14831
14831
14833
14833
14833
14834
14834
14834
14850
14850
14850
14868
14868
14868
14869
14869
14869
14876
14876
14876
14895
14895
14895
14911
14911
14911
14917
14917
14917
14922
14922
14922
14924
14924
14924
14937
14937
14937
14939
14939
14939
14945
14945
14945
14946
14946
14946
14948
14948
14948
14951
14951
14951
14955
14955
14955
14973
14973
14973
14982
14982
14982
14991
14991
14991
14996
14996
14996
14998
14998
14998
14999
14999
14999
15000
15000
15000
15002
15002
15002
15004
15004
15004
15011
15011
15011
15014
15014
15014
15027
15027
15027
15034
15034
15034
15037
15037
15037
15051
15051
15051
15064
15064
15064
15072
15072
15072
15075
15075
15075
15079
15079
15079
15080
15080
15080
15084
15084
15084
15090
15090
15090
15099
15099
15099
15103
15103
15103
15109
15109
15109
15116
15116
15116
15122
15122
15122
15123
15123
15123
15132
15132
15132
15137
15137
15137
15138
15138
15138
15151
15151
15151
15153
15153
15153
15167
15167
15167
15168
15168
15168
15174
15174
15174
15187
15187
15187
15189
15189
15189
15190
15190
15190
15191
15191
15191
15234
15234
15234
15260
15260
15260
15266
15266
15266
15269
15269
15269
15279
15279
15279
15282
15282
15282
15283
15283
15283
15287
15287
15287
15292
15292
15292
15294
15294
15294
15298
15298
15298
15300
15300
15300
15301
15301
15301
15327
15327
15327
15328
15328
15328
15343
15343
15343
15346
15346
15346
15349
15349
15349
15350
15350
15350
15368
15368
15368
15369
15369
15369
15372
15372
15372
15378
15378
15378
15386
15386
15386
15389
15389
15389
15390
15390
15390
15402
15402
15402
15418
15418
15418
15430
15430
15430
15437
15437
15437
15441
15441
15441
15444
15444
15444
15445
15445
15445
15464
15464
15464
15510
15510
15510
15543
15543
15543
15587
15587
15587
15622
15622
15622
15629
15629
15629
15633
15633
15633
15636
15636
15636
15638
15638
15638
15650
15650
15650
15653
15653
15653
15690
15690
15690
15709
15709
15709
15715
15715
15715
15723
15723
15723
15734
15734
15734
15745
15745
15745
15748
15748
15748
15749
15749
15749
15752
15752
15752
15758
15758
15758
15798
15798
15798
15802
15802
15802
15807
15807
15807
15814
15814
15814
15828
15828
15828
15831
15831
15831
15833
15833
15833
15837
15837
15837
15841
15841
15841
15848
15848
15848
15854
15854
15854
15861
15861
15861
15862
15862
15862
15865
15865
15865
15870
15870
15870
15871
15871
15871
15901
15901
15901
15909
15909
15909
15919
15919
15919
15950
15950
15950
15955
15955
15955
15958
15958
15958
15961
15961
15961
15962
15962
15962
15965
15965
15965
15975
15975
15975
15981
15981
15981
16001
16001
16001
16004
16004
16004
16010
16010
16010
16014
16014
16014
16017
16017
16017
16019
16019
16019
16023
16023
16023
16036
16036
16036
16070
16070
16070
16076
16076
16076
16085
16085
16085
16092
16092
16092
16094
16094
16094
16095
16095
16095
16096
16096
16096
16099
16099
16099
16101
16101
16101
16107
16107
16107
16108
16108
16108
16110
16110
16110
16111
16111
16111
16115
16115
16115
16125
16125
16125
16126
16126
16126
16134
16134
16134
16136
16136
16136
16144
16144
16144
16148
16148
16148
16157
16157
16157
16168
16168
16168
16171
16171
16171
16173
16173
16173
16185
16185
16185
16192
16192
16192
16195
16195
16195
16197
16197
16197
16201
16201
16201
16206
16206
16206
16210
16210
16210
16211
16211
16211
16216
16216
16216
16226
16226
16226
16235
16235
16235
16237
16237
16237
16239
16239
16239
16243
16243
16243
16244
16244
16244
16245
16245
16245
16269
16269
16269
16271
16271
16271
16273
16273
16273
16278
16278
16278
16279
16279
16279
16290
16290
16290
16294
16294
16294
16297
16297
16297
16318
16318
16318
16321
16321
16321
16324
16324
16324
16333
16333
16333
16336
16336
16336
16344
16344
16344
16345
16345
16345
16347
16347
16347
16349
16349
16349
16354
16354
16354
16355
16355
16355
16360
16360
16360
16368
16368
16368
16382
16382
16382
16390
16390
16390
16410
16410
16410
16415
16415
16415
16421
16421
16421
16432
16432
16432
16435
16435
16435
16436
16436
16436
16440
16440
16440
16442
16442
16442
16446
16446
16446
16451
16451
16451
16454
16454
16454
16470
16470
16470
16472
16472
16472
16473
16473
16473
16479
16479
16479
16480
16480
16480
16488
16488
16488
16495
16495
16495
16496
16496
16496
16498
16498
16498
16500
16500
16500
16517
16517
16517
16520
16520
16520
16525
16525
16525
16529
16529
16529
16531
16531
16531
16534
16534
16534
16558
16558
16558
16559
16559
16559
16562
16562
16562
16570
16570
16570
16579
16579
16579
16606
16606
16606
16609
16609
16609
16610
16610
16610
16611
16611
16611
16612
16612
16612
16613
16613
16613
16614
16614
16614
16617
16617
16617
16620
16620
16620
16626
16626
16626
16632
16632
16632
16653
16653
16653
16654
16654
16654
16668
16668
16668
16681
16681
16681
16685
16685
16685
16691
16691
16691
16701
16701
16701
16704
16704
16704
16716
16716
16716
16717
16717
16717
16739
16739
16739
16741
16741
16741
16745
16745
16745
16756
16756
16756
16757
16757
16757
16766
16766
16766
16772
16772
16772
16784
16784
16784
16790
16790
16790
16808
16808
16808
16809
16809
16809
16813
16813
16813
16814
16814
16814
16818
16818
16818
16841
16841
16841
16842
16842
16842
16844
16844
16844
16846
16846
16846
16848
16848
16848
16849
16849
16849
16850
16850
16850
16852
16852
16852
16858
16858
16858
16866
16866
16866
16875
16875
16875
16900
16900
16900
16905
16905
16905
16920
16920
16920
16945
16945
16945
16951
16951
16951
16954
16954
16954
16955
16955
16955
16956
16956
16956
16969
16969
16969
16980
16980
16980
16988
16988
16988
16998
16998
16998
17002
17002
17002
17004
17004
17004
17009
17009
17009
17015
17015
17015
17018
17018
17018
17026
17026
17026
17027
17027
17027
17033
17033
17033
17037
17037
17037
17045
17045
17045
17047
17047
17047
17050
17050
17050
17053
17053
17053
17057
17057
17057
17059
17059
17059
17061
17061
17061
17064
17064
17064
17067
17067
17067
17071
17071
17071
17082
17082
17082
17096
17096
17096
17110
17110
17110
17111
17111
17111
17116
17116
17116
17120
17120
17120
17126
17126
17126
17135
17135
17135
17136
17136
17136
17142
17142
17142
17153
17153
17153
17156
17156
17156
17192
17192
17192
17194
17194
17194
17203
17203
17203
17211
17211
17211
17222
17222
17222
17223
17223
17223
17226
17226
17226
17233
17233
17233
17238
17238
17238
17240
17240
17240
17241
17241
17241
17242
17242
17242
17249
17249
17249
17251
17251
17251
17252
17252
17252
17263
17263
17263
17264
17264
17264
17274
17274
17274
17281
17281
17281
17282
17282
17282
17288
17288
17288
17303
17303
17303
17304
17304
17304
17313
17313
17313
17315
17315
17315
17317
17317
17317
17335
17335
17335
17339
17339
17339
17342
17342
17342
17348
17348
17348
17364
17364
17364
17366
17366
17366
17369
17369
17369
17372
17372
17372
17376
17376
17376
17378
17378
17378
17379
17379
17379
17385
17385
17385
17387
17387
17387
17399
17399
17399
17404
17404
17404
17410
17410
17410
17416
17416
17416
17419
17419
17419
17421
17421
17421
17422
17422
17422
17424
17424
17424
17436
17436
17436
17439
17439
17439
17440
17440
17440
17456
17456
17456
17457
17457
17457
17463
17463
17463
17473
17473
17473
17489
17489
17489
17491
17491
17491
17492
17492
17492
17495
17495
17495
17496
17496
17496
17498
17498
17498
17499
17499
17499
17500
17500
17500
17513
17513
17513
17540
17540
17540
17544
17544
17544
17566
17566
17566
17571
17571
17571
17585
17585
17585
17614
17614
17614
17622
17622
17622
17627
17627
17627
17637
17637
17637
17638
17638
17638
17642
17642
17642
17643
17643
17643
17649
17649
17649
17651
17651
17651
17652
17652
17652
17664
17664
17664
17675
17675
17675
17678
17678
17678
17679
17679
17679
17701
17701
17701
17705
17705
17705
17716
17716
17716
17720
17720
17720
17727
17727
17727
17740
17740
17740
17747
17747
17747
17749
17749
17749
17757
17757
17757
17765
17765
17765
17771
17771
17771
17786
17786
17786
17787
17787
17787
17796
17796
17796
17799
17799
17799
17803
17803
17803
17809
17809
17809
17848
17848
17848
17849
17849
17849
17863
17863
17863
17880
17880
17880
17892
17892
17892
17894
17894
17894
17895
17895
17895
17897
17897
17897
17899
17899
17899
17901
17901
17901
17910
17910
17910
17914
17914
17914
17915
17915
17915
17920
17920
17920
17922
17922
17922
17924
17924
17924
17926
17926
17926
17927
17927
17927
17930
17930
17930
17931
17931
17931
17932
17932
17932
17938
17938
17938
17946
17946
17946
17955
17955
17955
17969
17969
17969
17972
17972
17972
17978
17978
17978
17983
17983
17983
17992
17992
17992
17993
17993
17993
17994
17994
17994
18013
18013
18013
18014
18014
18014
18015
18015
18015
18017
18017
18017
18018
18018
18018
18021
18021
18021
18024
18024
18024
18041
18041
18041
18046
18046
18046
18052
18052
18052
18054
18054
18054
18056
18056
18056
18065
18065
18065
18078
18078
18078
18086
18086
18086
18091
18091
18091
18095
18095
18095
18100
18100
18100
18106
18106
18106
18112
18112
18112
18123
18123
18123
18142
18142
18142
18143
18143
18143
18145
18145
18145
18149
18149
18149
18154
18154
18154
18156
18156
18156
18157
18157
18157
18162
18162
18162
18163
18163
18163
18174
18174
18174
18179
18179
18179
18182
18182
18182
18183
18183
18183
18205
18205
18205
18208
18208
18208
18216
18216
18216
18218
18218
18218
18221
18221
18221
18222
18222
18222
18224
18224
18224
18234
18234
18234
18235
18235
18235
18241
18241
18241
18249
18249
18249
18259
18259
18259
18261
18261
18261
18272
18272
18272
18275
18275
18275
18278
18278
18278
18290
18290
18290
18298
18298
18298
18299
18299
18299
18301
18301
18301
18303
18303
18303
18308
18308
18308
18312
18312
18312
18314
18314
18314
18316
18316
18316
18317
18317
18317
18325
18325
18325
18330
18330
18330
18338
18338
18338
18339
18339
18339
18353
18353
18353
18358
18358
18358
18368
18368
18368
18369
18369
18369
18374
18374
18374
18375
18375
18375
18377
18377
18377
18381
18381
18381
18393
18393
18393
18396
18396
18396
18405
18405
18405
18407
18407
18407
18410
18410
18410
18419
18419
18419
18421
18421
18421
18422
18422
18422
18423
18423
18423
18426
18426
18426
18428
18428
18428
18429
18429
18429
18431
18431
18431
18437
18437
18437
18439
18439
18439
18441
18441
18441
18447
18447
18447
18451
18451
18451
18457
18457
18457
18464
18464
18464
18468
18468
18468
18471
18471
18471
18474
18474
18474
18490
18490
18490
18492
18492
18492
18496
18496
18496
18497
18497
18497
18506
18506
18506
18507
18507
18507
18511
18511
18511
18519
18519
18519
18523
18523
18523
18532
18532
18532
18537
18537
18537
18539
18539
18539
18542
18542
18542
18543
18543
18543
18550
18550
18550
18552
18552
18552
18562
18562
18562
18563
18563
18563
18564
18564
18564
18570
18570
18570
18574
18574
18574
18575
18575
18575
18576
18576
18576
18588
18588
18588
18591
18591
18591
18592
18592
18592
18599
18599
18599
18600
18600
18600
18608
18608
18608
18610
18610
18610
18611
18611
18611
18616
18616
18616
18619
18619
18619
18625
18625
18625
18635
18635
18635
18637
18637
18637
18638
18638
18638
18643
18643
18643
18648
18648
18648
18662
18662
18662
18670
18670
18670
18673
18673
18673
18684
18684
18684
18694
18694
18694
18700
18700
18700
18703
18703
18703
18704
18704
18704
18706
18706
18706
18709
18709
18709
18714
18714
18714
18739
18739
18739
18744
18744
18744
18745
18745
18745
18756
18756
18756
18759
18759
18759
18763
18763
18763
18766
18766
18766
18768
18768
18768
18772
18772
18772
18773
18773
18773
18782
18782
18782
18785
18785
18785
18790
18790
18790
18792
18792
18792
18802
18802
18802
18803
18803
18803
18805
18805
18805
18813
18813
18813
18822
18822
18822
18833
18833
18833
18849
18849
18849
18856
18856
18856
18860
18860
18860
18862
18862
18862
18869
18869
18869
18871
18871
18871
18880
18880
18880
18882
18882
18882
18909
18909
18909
18915
18915
18915
18919
18919
18919
18934
18934
18934
18938
18938
18938
18939
18939
18939
18949
18949
18949
18952
18952
18952
18962
18962
18962
18963
18963
18963
18968
18968
18968
18969
18969
18969
18970
18970
18970
18975
18975
18975
18976
18976
18976
18979
18979
18979
18982
18982
18982
18999
18999
18999
19000
19000
19000
19028
19028
19028
19033
19033
19033
19034
19034
19034
19038
19038
19038
19044
19044
19044
19051
19051
19051
19056
19056
19056
19064
19064
19064
19066
19066
19066
19068
19068
19068
19071
19071
19071
19085
19085
19085
19087
19087
19087
19093
19093
19093
19098
19098
19098
19099
19099
19099
19102
19102
19102
19111
19111
19111
19112
19112
19112
19115
19115
19115
19116
19116
19116
19118
19118
19118
19120
19120
19120
19124
19124
19124
19125
19125
19125
19128
19128
19128
19135
19135
19135
19146
19146
19146
19151
19151
19151
19153
19153
19153
19157
19157
19157
19174
19174
19174
19187
19187
19187
19189
19189
19189
19196
19196
19196
19201
19201
19201
19203
19203
19203
19212
19212
19212
19214
19214
19214
19224
19224
19224
19229
19229
19229
19234
19234
19234
19245
19245
19245
19250
19250
19250
19254
19254
19254
17
20
22
39
45
102
105
106
107
118
131
134
136
137
149
175
211
213
226
245
255
268
269
274
276
277
287
290
296
302
307
312
343
347
351
379
386
393
397
409
410
420
424
426
433
444
446
457
466
473
477
483
486
487
501
518
519
536
554
560
568
575
577
585
588
615
637
638
640
649
655
685
689
693
721
727
729
732
749
769
773
782
783
784
785
805
809
811
834
835
837
846
847
853
854
869
882
886
894
905
916
923
929
977
987
991
1002
1011
1012
1025
1026
1037
1040
1057
1061
1070
1082
1108
1115
1118
1127
1148
1153
1188
1208
1233
1246
1249
1282
1287
1292
1293
1302
1304
1310
1318
1328
1334
1336
1340
1342
1349
1364
1368
1374
1378
1382
1384
1388
1392
1399
1402
1420
1422
1423
1425
1430
1436
1463
1476
1482
1492
1498
1508
1514
1517
1526
1561
1565
1567
1592
1602
1627
1630
1636
1649
1657
1663
1667
1669
1672
1692
1693
1695
1697
1708
1709
1712
1718
1725
1728
1735
1743
1751
1753
1754
1778
1787
1791
1797
1807
1818
1825
1835
1861
1873
1880
1901
1920
1930
1945
1946
1963
1972
1984
2048
2066
2070
2089
2098
2105
2119
2140
2146
2159
2173
2181
2185
2190
2205
2285
2292
2316
2317
2328
2344
2354
2363
2364
2365
2367
2378
2380
2398
2409
2418
2419
2434
2455
2460
2466
2486
2491
2501
2507
2533
2535
2542
2554
2558
2598
2606
2608
2611
2618
2621
2628
2631
2636
2641
2649
2669
2677
2685
2693
2698
2705
2713
2719
2733
2741
2742
2746
2749
2754
2760
2762
2774
2781
2782
2820
2823
2844
2854
2864
2868
2869
2883
2898
2915
2919
2920
2921
2927
2929
2937
2956
2957
2960
2967
2969
2987
2995
2997
3007
3010
3028
3046
3048
3050
3052
3058
3061
3066
3072
3077
3082
3091
3092
3099
3106
3114
3129
3131
3151
3155
3158
3172
3179
3180
3221
3242
3252
3253
3271
3273
3274
3299
3310
3312
3341
3345
3348
3350
3351
3360
3365
3372
3377
3379
3383
3391
3406
3412
3441
3444
3463
3468
3472
3493
3504
3522
3524
3527
3528
3534
3543
3548
3549
3550
3557
3559
3561
3563
3575
3579
3597
3624
3626
3642
3644
3651
3653
3683
3689
3704
3709
3711
3712
3714
3724
3730
3733
3739
3752
3758
3766
3767
3778
3787
3793
3805
3824
3839
3842
3846
3852
3872
3875
3882
3898
3902
3907
3914
3916
3919
3920
3928
3934
3962
3973
3993
3996
3998
4023
4054
4056
4059
4066
4080
4087
4089
4094
4098
4102
4106
4107
4114
4115
4123
4126
4139
4142
4151
4153
4171
4181
4187
4223
4226
4235
4242
4255
4263
4268
4271
4283
4294
4317
4322
4323
4332
4376
4399
4400
4420
4437
4439
4440
4442
4449
4457
4475
4487
4499
4503
4508
4510
4521
4528
4537
4539
4540
4554
4565
4568
4575
4585
4600
4601
4608
4614
4635
4643
4644
4646
4653
4654
4656
4665
4677
4683
4702
4710
4749
4765
4770
4789
4795
4803
4829
4831
4834
4845
4856
4860
4874
4875
4891
4898
4899
4900
4911
4912
4934
4965
4977
4981
4986
4991
5006
5009
5018
5065
5066
5083
5084
5085
5091
5098
5099
5101
5108
5119
5125
5128
5131
5148
5155
5156
5161
5162
5189
5200
5203
5206
5224
5246
5256
5278
5281
5283
5315
5317
5319
5322
5330
5331
5349
5373
5394
5395
5396
5399
5408
5409
5411
5415
5454
5465
5487
5492
5504
5511
5514
5521
5538
5539
5556
5564
5573
5596
5597
5604
5607
5608
5610
5614
5618
5637
5641
5643
5648
5652
5663
5682
5707
5713
5715
5727
5737
5738
5743
5748
5752
5755
5764
5785
5794
5814
5823
5828
5847
5862
5887
5899
5911
5914
5917
5918
5926
5931
5933
5949
5952
5954
5965
5979
6001
6008
6009
6010
6016
6018
6020
6025
6028
6036
6041
6052
6055
6063
6072
6099
6101
6110
6118
6121
6148
6154
6161
6187
6199
6200
6215
6219
6220
6226
6230
6240
6241
6265
6268
6295
6296
6305
6309
6311
6319
6324
6331
6351
6369
6370
6399
6423
6426
6449
6453
6454
6465
6479
6495
6498
6502
6509
6520
6523
6524
6529
6543
6544
6547
6557
6563
6567
6574
6576
6580
6586
6589
6593
6595
6599
6631
6639
6649
6653
6684
6695
6702
6724
6726
6730
6737
6764
6775
6779
6784
6800
6803
6810
6816
6817
6822
6825
6827
6828
6831
6835
6839
6846
6855
6864
6875
6876
6888
6890
6908
6911
6923
6933
6936
6943
6946
6983
6985
6991
6992
7015
7016
7031
7045
7089
7093
7097
7098
7102
7109
7111
7137
7139
7141
7166
7191
7198
7211
7221
7224
7225
7231
7232
7239
7275
7284
7285
7288
7296
7300
7303
7315
7317
7320
7336
7343
7354
7370
7379
7383
7391
7393
7398
7406
7415
7422
7428
7437
7438
7440
7442
7443
7444
7448
7454
7463
7469
7478
7480
7484
7504
7513
7515
7517
7523
7543
7561
7581
7582
7605
7627
7630
7633
7634
7657
7668
7676
7686
7688
7702
7704
7717
7742
7769
7770
7771
7790
7800
7825
7827
7833
7836
7839
7849
7850
7854
7857
7874
7877
7882
7894
7901
7902
7911
7921
7944
7951
7961
7968
7969
7982
7992
8007
8010
8014
8020
8033
8038
8041
8042
8045
8049
8052
8057
8065
8068
8093
8097
8111
8112
8118
8132
8143
8144
8180
8186
8197
8208
8214
8237
8251
8289
8304
8313
8317
8322
8325
8329
8338
8348
8365
8372
8377
8378
8381
8390
8391
8400
8410
8413
8433
8449
8451
8473
8475
8476
8485
8490
8503
8504
8513
8515
8518
8523
8539
8561
8576
8594
8595
8610
8616
8620
8626
8628
8640
8643
8645
8665
8678
8703
8713
8722
8747
8751
8754
8756
8762
8773
8780
8791
8813
8816
8820
8821
8822
8834
8840
8847
8861
8863
8868
8871
8878
8886
8888
8897
8899
8913
8922
8946
8947
8955
8957
8959
8961
8982
8990
9012
9028
9033
9034
9043
9044
9045
9055
9061
9086
9091
9100
9102
9104
9113
9121
9126
9137
9169
9176
9190
9192
9194
9207
9214
9217
9219
9220
9223
9225
9227
9248
9253
9275
9279
9280
9285
9300
9303
9306
9308
9309
9329
9330
9331
9334
9336
9338
9347
9350
9352
9355
9375
9386
9389
9392
9406
9436
9454
9455
9480
9482
9498
9510
9514
9520
9528
9537
9547
9576
9578
9586
9592
9593
9597
9602
9605
9608
9657
9665
9673
9684
9700
9709
9710
9715
9722
9735
9744
9758
9769
9775
9784
9792
9795
9814
9832
9846
9849
9853
9865
9877
9888
9892
9894
9904
9908
9914
9929
9932
9935
9937
9939
9945
9946
9951
9958
9970
9984
9994
9995
10003
10006
10007
10010
10011
10022
10026
10028
10032
10050
10059
10061
10077
10087
10089
10098
10109
10115
10118
10133
10137
10139
10144
10148
10156
10158
10163
10166
10167
10168
10173
10183
10185
10189
10199
10220
10229
10238
10243
10258
10260
10261
10266
10269
10291
10295
10307
10329
10332
10333
10334
10339
10345
10347
10348
10349
10357
10378
10387
10391
10403
10410
10412
10418
10419
10425
10472
10490
10494
10495
10511
10512
10516
10517
10520
10536
10541
10551
10553
10557
10572
10575
10578
10580
10585
10591
10631
10635
10651
10661
10665
10676
10678
10680
10708
10715
10724
10731
10732
10740
10753
10757
10758
10770
10790
10791
10792
10809
10814
10818
10822
10825
10848
10860
10867
10874
10888
10897
10912
10931
10949
10969
10973
10995
11020
11030
11031
11033
11047
11048
11054
11063
11070
11079
11082
11084
11096
11104
11112
11113
11123
11158
11159
11170
11196
11202
11203
11209
11213
11216
11217
11222
11223
11226
11229
11231
11236
11237
11242
11245
11248
11251
11260
11262
11274
11276
11281
11283
11309
11313
11315
11325
11328
11330
11334
11346
11354
11373
11376
11385
11397
11416
11424
11427
11430
11456
11472
11477
11482
11492
11508
11519
11520
11534
11543
11547
11549
11552
11583
11584
11589
11597
11642
11648
11659
11660
11667
11683
11685
11691
11703
11711
11717
11725
11736
11737
11746
11747
11755
11756
11766
11816
11818
11823
11826
11864
11866
11877
11888
11899
11903
11907
11923
11931
11933
11948
11961
11965
11974
11988
12007
12011
12025
12038
12042
12046
12050
12053
12056
12061
12063
12077
12080
12091
12106
12119
12129
12144
12150
12166
12170
12186
12187
12208
12230
12236
12243
12244
12258
12284
12286
12300
12302
12308
12323
12336
12352
12353
12362
12366
12367
12369
12370
12371
12372
12379
12382
12406
12408
12417
12434
12445
12458
12502
12504
12518
12536
12539
12543
12549
12554
12562
12563
12565
12576
12588
12591
12592
12616
12623
12634
12645
12673
12676
12677
12704
12705
12706
12707
12722
12725
12731
12747
12753
12754
12760
12767
12768
12780
12781
12795
12827
12829
12835
12839
12872
12886
12888
12897
12905
12912
12935
12937
12947
12976
12982
12986
13004
13026
13045
13081
13086
13112
13113
13121
13131
13139
13144
13150
13160
13178
13195
13196
13213
13228
13233
13234
13235
13236
13238
13245
13247
13251
13257
13260
13262
13264
13269
13284
13293
13322
13327
13335
13337
13345
13346
13353
13357
13375
13378
13386
13402
13416
13442
13446
13450
13453
13469
13483
13498
13534
13538
13543
13555
13557
13563
13566
13596
13603
13629
13652
13664
13675
13677
13688
13689
13690
13691
13692
13693
13699
13700
13719
13728
13731
13749
13752
13757
13758
13760
13776
13790
13794
13796
13797
13800
13802
13830
13831
13856
13859
13879
13880
13889
13890
13914
13915
13919
13927
13940
13949
13951
13955
13966
13967
13970
13977
13988
13996
13997
14010
14014
14018
14024
14025
14032
14039
14043
14049
14056
14064
14068
14070
14076
14091
14106
14132
14139
14150
14163
14165
14177
14179
14191
14200
14213
14214
14216
14230
14263
14264
14271
14272
14275
14277
14282
14286
14302
14342
14357
14390
14393
14397
14399
14419
14439
14462
14481
14493
14500
14524
14527
14533
14556
14569
14571
14584
14589
14599
14602
14603
14604
14635
14663
14687
14689
14696
14706
14708
14709
14710
14720
14721
14723
14743
14746
14756
14758
14762
14772
14775
14782
14785
14786
14792
14812
14827
14832
14839
14848
14849
14863
14874
14877
14905
14914
14933
14941
14956
14961
14977
15001
15007
15019
15026
15029
15031
15036
15042
15048
15052
15053
15054
15060
15062
15076
15095
15101
15113
15115
15127
15133
15135
15146
15154
15170
15175
15182
15201
15211
15222
15225
15231
15235
15251
15259
15285
15307
15310
15325
15336
15338
15340
15355
15357
15366
15370
15377
15398
15403
15413
15419
15474
15500
15519
15527
15556
15569
15573
15582
15608
15615
15665
15677
15684
15687
15695
15698
15702
15720
15728
15736
15740
15750
15751
15768
15770
15774
15776
15786
15789
15799
15869
15872
15877
15880
15882
15892
15893
15900
15904
15905
15912
15922
15928
15930
15932
15949
15951
15970
15971
15977
15989
15997
16006
16007
16021
16033
16034
16040
16047
16050
16055
16057
16066
16088
16090
16093
16098
16114
16147
16149
16151
16174
16196
16238
16252
16254
16261
16262
16264
16270
16285
16293
16301
16331
16350
16373
16385
16394
16402
16424
16425
16443
16444
16447
16457
16459
16464
16481
16494
16507
16515
16541
16542
16560
16574
16578
16580
16581
16597
16601
16603
16608
16615
16616
16649
16655
16659
16664
16671
16674
16710
16711
16721
16729
16731
16736
16748
16771
16781
16782
16783
16785
16802
16812
16829
16831
16859
16869
16871
16873
16901
16908
16936
16949
16953
16958
16959
16968
16972
16974
16979
16983
16990
16995
17008
17014
17022
17038
17041
17043
17048
17056
17063
17074
17083
17091
17100
17128
17132
17150
17152
17166
17167
17181
17206
17225
17227
17232
17234
17235
17243
17244
17259
17265
17286
17287
17292
17301
17305
17318
17325
17327
17351
17360
17382
17386
17395
17397
17400
17409
17414
17432
17447
17453
17461
17464
17470
17490
17502
17503
17504
17505
17510
17514
17519
17536
17542
17543
17546
17586
17587
17599
17600
17601
17602
17603
17605
17639
17648
17650
17660
17663
17667
17668
17670
17672
17683
17689
17699
17703
17721
17737
17743
17748
17759
17760
17775
17776
17777
17781
17785
17793
17831
17840
17844
17847
17853
17867
17869
17875
17878
17884
17887
17902
17903
17928
17936
17937
17939
17945
17951
17959
17964
17966
17970
17974
17987
17990
17998
18029
18030
18033
18037
18038
18044
18058
18070
18071
18079
18083
18088
18103
18107
18108
18115
18116
18137
18148
18151
18152
18166
18175
18181
18187
18193
18194
18196
18204
18210
18211
18212
18213
18223
18240
18245
18247
18248
18253
18255
18257
18265
18273
18276
18287
18291
18295
18300
18305
18311
18327
18331
18332
18335
18350
18363
18388
18420
18436
18449
18459
18467
18469
18476
18479
18495
18510
18528
18535
18541
18569
18579
18580
18590
18594
18596
18597
18607
18612
18617
18623
18629
18640
18646
18661
18664
18676
18678
18680
18689
18690
18711
18723
18729
18730
18747
18750
18762
18770
18793
18798
18811
18812
18836
18867
18876
18878
18879
18883
18884
18886
18890
18892
18899
18900
18910
18925
18926
18948
18951
18954
18966
18980
19002
19010
19015
19042
19047
19063
19079
19082
19092
19117
19123
19130
19144
19147
19152
19155
19160
19162
19170
19180
19205
19206
19210
19215
19221
19223
19230
19233
19241
19249
19262
19264
17
17
17
20
20
20
22
22
22
39
39
39
45
45
45
102
102
102
105
105
105
106
106
106
107
107
107
118
118
118
131
131
131
134
134
134
136
136
136
137
137
137
149
149
149
175
175
175
211
211
211
213
213
213
226
226
226
245
245
245
255
255
255
268
268
268
269
269
269
274
274
274
276
276
276
277
277
277
287
287
287
290
290
290
296
296
296
302
302
302
307
307
307
312
312
312
343
343
343
347
347
347
351
351
351
379
379
379
386
386
386
393
393
393
397
397
397
409
409
409
410
410
410
420
420
420
424
424
424
426
426
426
433
433
433
444
444
444
446
446
446
457
457
457
466
466
466
473
473
473
477
477
477
483
483
483
486
486
486
487
487
487
501
501
501
518
518
518
519
519
519
536
536
536
554
554
554
560
560
560
568
568
568
575
575
575
577
577
577
585
585
585
588
588
588
615
615
615
637
637
637
638
638
638
640
640
640
649
649
649
655
655
655
685
685
685
689
689
689
693
693
693
721
721
721
727
727
727
729
729
729
732
732
732
749
749
749
769
769
769
773
773
773
782
782
782
783
783
783
784
784
784
785
785
785
805
805
805
809
809
809
811
811
811
834
834
834
835
835
835
837
837
837
846
846
846
847
847
847
853
853
853
854
854
854
869
869
869
882
882
882
886
886
886
894
894
894
905
905
905
916
916
916
923
923
923
929
929
929
977
977
977
987
987
987
991
991
991
1002
1002
1002
1011
1011
1011
1012
1012
1012
1025
1025
1025
1026
1026
1026
1037
1037
1037
1040
1040
1040
1057
1057
1057
1061
1061
1061
1070
1070
1070
1082
1082
1082
1108
1108
1108
1115
1115
1115
1118
1118
1118
1127
1127
1127
1148
1148
1148
1153
1153
1153
1188
1188
1188
1208
1208
1208
1233
1233
1233
1246
1246
1246
1249
1249
1249
1282
1282
1282
1287
1287
1287
1292
1292
1292
1293
1293
1293
1302
1302
1302
1304
1304
1304
1310
1310
1310
1318
1318
1318
1328
1328
1328
1334
1334
1334
1336
1336
1336
1340
1340
1340
1342
1342
1342
1349
1349
1349
1364
1364
1364
1368
1368
1368
1374
1374
1374
1378
1378
1378
1382
1382
1382
1384
1384
1384
1388
1388
1388
1392
1392
1392
1399
1399
1399
1402
1402
1402
1420
1420
1420
1422
1422
1422
1423
1423
1423
1425
1425
1425
1430
1430
1430
1436
1436
1436
1463
1463
1463
1476
1476
1476
1482
1482
1482
1492
1492
1492
1498
1498
1498
1508
1508
1508
1514
1514
1514
1517
1517
1517
1526
1526
1526
1561
1561
1561
1565
1565
1565
1567
1567
1567
1592
1592
1592
1602
1602
1602
1627
1627
1627
1630
1630
1630
1636
1636
1636
1649
1649
1649
1657
1657
1657
1663
1663
1663
1667
1667
1667
1669
1669
1669
1672
1672
1672
1692
1692
1692
1693
1693
1693
1695
1695
1695
1697
1697
1697
1708
1708
1708
1709
1709
1709
1712
1712
1712
1718
1718
1718
1725
1725
1725
1728
1728
1728
1735
1735
1735
1743
1743
1743
1751
1751
1751
1753
1753
1753
1754
1754
1754
1778
1778
1778
1787
1787
1787
1791
1791
1791
1797
1797
1797
1807
1807
1807
1818
1818
1818
1825
1825
1825
1835
1835
1835
1861
1861
1861
1873
1873
1873
1880
1880
1880
1901
1901
1901
1920
1920
1920
1930
1930
1930
1945
1945
1945
1946
1946
1946
1963
1963
1963
1972
1972
1972
1984
1984
1984
2048
2048
2048
2066
2066
2066
2070
2070
2070
2089
2089
2089
2098
2098
2098
2105
2105
2105
2119
2119
2119
2140
2140
2140
2146
2146
2146
2159
2159
2159
2173
2173
2173
2181
2181
2181
2185
2185
2185
2190
2190
2190
2205
2205
2205
2285
2285
2285
2292
2292
2292
2316
2316
2316
2317
2317
2317
2328
2328
2328
2344
2344
2344
2354
2354
2354
2363
2363
2363
2364
2364
2364
2365
2365
2365
2367
2367
2367
2378
2378
2378
2380
2380
2380
2398
2398
2398
2409
2409
2409
2418
2418
2418
2419
2419
2419
2434
2434
2434
2455
2455
2455
2460
2460
2460
2466
2466
2466
2486
2486
2486
2491
2491
2491
2501
2501
2501
2507
2507
2507
2533
2533
2533
2535
2535
2535
2542
2542
2542
2554
2554
2554
2558
2558
2558
2598
2598
2598
2606
2606
2606
2608
2608
2608
2611
2611
2611
2618
2618
2618
2621
2621
2621
2628
2628
2628
2631
2631
2631
2636
2636
2636
2641
2641
2641
2649
2649
2649
2669
2669
2669
2677
2677
2677
2685
2685
2685
2693
2693
2693
2698
2698
2698
2705
2705
2705
2713
2713
2713
2719
2719
2719
2733
2733
2733
2741
2741
2741
2742
2742
2742
2746
2746
2746
2749
2749
2749
2754
2754
2754
2760
2760
2760
2762
2762
2762
2774
2774
2774
2781
2781
2781
2782
2782
2782
2820
2820
2820
2823
2823
2823
2844
2844
2844
2854
2854
2854
2864
2864
2864
2868
2868
2868
2869
2869
2869
2883
2883
2883
2898
2898
2898
2915
2915
2915
2919
2919
2919
2920
2920
2920
2921
2921
2921
2927
2927
2927
2929
2929
2929
2937
2937
2937
2956
2956
2956
2957
2957
2957
2960
2960
2960
2967
2967
2967
2969
2969
2969
2987
2987
2987
2995
2995
2995
2997
2997
2997
3007
3007
3007
3010
3010
3010
3028
3028
3028
3046
3046
3046
3048
3048
3048
3050
3050
3050
3052
3052
3052
3058
3058
3058
3061
3061
3061
3066
3066
3066
3072
3072
3072
3077
3077
3077
3082
3082
3082
3091
3091
3091
3092
3092
3092
3099
3099
3099
3106
3106
3106
3114
3114
3114
3129
3129
3129
3131
3131
3131
3151
3151
3151
3155
3155
3155
3158
3158
3158
3172
3172
3172
3179
3179
3179
3180
3180
3180
3221
3221
3221
3242
3242
3242
3252
3252
3252
3253
3253
3253
3271
3271
3271
3273
3273
3273
3274
3274
3274
3299
3299
3299
3310
3310
3310
3312
3312
3312
3341
3341
3341
3345
3345
3345
3348
3348
3348
3350
3350
3350
3351
3351
3351
3360
3360
3360
3365
3365
3365
3372
3372
3372
3377
3377
3377
3379
3379
3379
3383
3383
3383
3391
3391
3391
3406
3406
3406
3412
3412
3412
3441
3441
3441
3444
3444
3444
3463
3463
3463
3468
3468
3468
3472
3472
3472
3493
3493
3493
3504
3504
3504
3522
3522
3522
3524
3524
3524
3527
3527
3527
3528
3528
3528
3534
3534
3534
3543
3543
3543
3548
3548
3548
3549
3549
3549
3550
3550
3550
3557
3557
3557
3559
3559
3559
3561
3561
3561
3563
3563
3563
3575
3575
3575
3579
3579
3579
3597
3597
3597
3624
3624
3624
3626
3626
3626
3642
3642
3642
3644
3644
3644
3651
3651
3651
3653
3653
3653
3683
3683
3683
3689
3689
3689
3704
3704
3704
3709
3709
3709
3711
3711
3711
3712
3712
3712
3714
3714
3714
3724
3724
3724
3730
3730
3730
3733
3733
3733
3739
3739
3739
3752
3752
3752
3758
3758
3758
3766
3766
3766
3767
3767
3767
3778
3778
3778
3787
3787
3787
3793
3793
3793
3805
3805
3805
3824
3824
3824
3839
3839
3839
3842
3842
3842
3846
3846
3846
3852
3852
3852
3872
3872
3872
3875
3875
3875
3882
3882
3882
3898
3898
3898
3902
3902
3902
3907
3907
3907
3914
3914
3914
3916
3916
3916
3919
3919
3919
3920
3920
3920
3928
3928
3928
3934
3934
3934
3962
3962
3962
3973
3973
3973
3993
3993
3993
3996
3996
3996
3998
3998
3998
4023
4023
4023
4054
4054
4054
4056
4056
4056
4059
4059
4059
4066
4066
4066
4080
4080
4080
4087
4087
4087
4089
4089
4089
4094
4094
4094
4098
4098
4098
4102
4102
4102
4106
4106
4106
4107
4107
4107
4114
4114
4114
4115
4115
4115
4123
4123
4123
4126
4126
4126
4139
4139
4139
4142
4142
4142
4151
4151
4151
4153
4153
4153
4171
4171
4171
4181
4181
4181
4187
4187
4187
4223
4223
4223
4226
4226
4226
4235
4235
4235
4242
4242
4242
4255
4255
4255
4263
4263
4263
4268
4268
4268
4271
4271
4271
4283
4283
4283
4294
4294
4294
4317
4317
4317
4322
4322
4322
4323
4323
4323
4332
4332
4332
4376
4376
4376
4399
4399
4399
4400
4400
4400
4420
4420
4420
4437
4437
4437
4439
4439
4439
4440
4440
4440
4442
4442
4442
4449
4449
4449
4457
4457
4457
4475
4475
4475
4487
4487
4487
4499
4499
4499
4503
4503
4503
4508
4508
4508
4510
4510
4510
4521
4521
4521
4528
4528
4528
4537
4537
4537
4539
4539
4539
4540
4540
4540
4554
4554
4554
4565
4565
4565
4568
4568
4568
4575
4575
4575
4585
4585
4585
4600
4600
4600
4601
4601
4601
4608
4608
4608
4614
4614
4614
4635
4635
4635
4643
4643
4643
4644
4644
4644
4646
4646
4646
4653
4653
4653
4654
4654
4654
4656
4656
4656
4665
4665
4665
4677
4677
4677
4683
4683
4683
4702
4702
4702
4710
4710
4710
4749
4749
4749
4765
4765
4765
4770
4770
4770
4789
4789
4789
4795
4795
4795
4803
4803
4803
4829
4829
4829
4831
4831
4831
4834
4834
4834
4845
4845
4845
4856
4856
4856
4860
4860
4860
4874
4874
4874
4875
4875
4875
4891
4891
4891
4898
4898
4898
4899
4899
4899
4900
4900
4900
4911
4911
4911
4912
4912
4912
4934
4934
4934
4965
4965
4965
4977
4977
4977
4981
4981
4981
4986
4986
4986
4991
4991
4991
5006
5006
5006
5009
5009
5009
5018
5018
5018
5065
5065
5065
5066
5066
5066
5083
5083
5083
5084
5084
5084
5085
5085
5085
5091
5091
5091
5098
5098
5098
5099
5099
5099
5101
5101
5101
5108
5108
5108
5119
5119
5119
5125
5125
5125
5128
5128
5128
5131
5131
5131
5148
5148
5148
5155
5155
5155
5156
5156
5156
5161
5161
5161
5162
5162
5162
5189
5189
5189
5200
5200
5200
5203
5203
5203
5206
5206
5206
5224
5224
5224
5246
5246
5246
5256
5256
5256
5278
5278
5278
5281
5281
5281
5283
5283
5283
5315
5315
5315
5317
5317
5317
5319
5319
5319
5322
5322
5322
5330
5330
5330
5331
5331
5331
5349
5349
5349
5373
5373
5373
5394
5394
5394
5395
5395
5395
5396
5396
5396
5399
5399
5399
5408
5408
5408
5409
5409
5409
5411
5411
5411
5415
5415
5415
5454
5454
5454
5465
5465
5465
5487
5487
5487
5492
5492
5492
5504
5504
5504
5511
5511
5511
5514
5514
5514
5521
5521
5521
5538
5538
5538
5539
5539
5539
5556
5556
5556
5564
5564
5564
5573
5573
5573
5596
5596
5596
5597
5597
5597
5604
5604
5604
5607
5607
5607
5608
5608
5608
5610
5610
5610
5614
5614
5614
5618
5618
5618
5637
5637
5637
5641
5641
5641
5643
5643
5643
5648
5648
5648
5652
5652
5652
5663
5663
5663
5682
5682
5682
5707
5707
5707
5713
5713
5713
5715
5715
5715
5727
5727
5727
5737
5737
5737
5738
5738
5738
5743
5743
5743
5748
5748
5748
5752
5752
5752
5755
5755
5755
5764
5764
5764
5785
5785
5785
5794
5794
5794
5814
5814
5814
5823
5823
5823
5828
5828
5828
5847
5847
5847
5862
5862
5862
5887
5887
5887
5899
5899
5899
5911
5911
5911
5914
5914
5914
5917
5917
5917
5918
5918
5918
5926
5926
5926
5931
5931
5931
5933
5933
5933
5949
5949
5949
5952
5952
5952
5954
5954
5954
5965
5965
5965
5979
5979
5979
6001
6001
6001
6008
6008
6008
6009
6009
6009
6010
6010
6010
6016
6016
6016
6018
6018
6018
6020
6020
6020
6025
6025
6025
6028
6028
6028
6036
6036
6036
6041
6041
6041
6052
6052
6052
6055
6055
6055
6063
6063
6063
6072
6072
6072
6099
6099
6099
6101
6101
6101
6110
6110
6110
6118
6118
6118
6121
6121
6121
6148
6148
6148
6154
6154
6154
6161
6161
6161
6187
6187
6187
6199
6199
6199
6200
6200
6200
6215
6215
6215
6219
6219
6219
6220
6220
6220
6226
6226
6226
6230
6230
6230
6240
6240
6240
6241
6241
6241
6265
6265
6265
6268
6268
6268
6295
6295
6295
6296
6296
6296
6305
6305
6305
6309
6309
6309
6311
6311
6311
6319
6319
6319
6324
6324
6324
6331
6331
6331
6351
6351
6351
6369
6369
6369
6370
6370
6370
6399
6399
6399
6423
6423
6423
6426
6426
6426
6449
6449
6449
6453
6453
6453
6454
6454
6454
6465
6465
6465
6479
6479
6479
6495
6495
6495
6498
6498
6498
6502
6502
6502
6509
6509
6509
6520
6520
6520
6523
6523
6523
6524
6524
6524
6529
6529
6529
6543
6543
6543
6544
6544
6544
6547
6547
6547
6557
6557
6557
6563
6563
6563
6567
6567
6567
6574
6574
6574
6576
6576
6576
6580
6580
6580
6586
6586
6586
6589
6589
6589
6593
6593
6593
6595
6595
6595
6599
6599
6599
6631
6631
6631
6639
6639
6639
6649
6649
6649
6653
6653
6653
6684
6684
6684
6695
6695
6695
6702
6702
6702
6724
6724
6724
6726
6726
6726
6730
6730
6730
6737
6737
6737
6764
6764
6764
6775
6775
6775
6779
6779
6779
6784
6784
6784
6800
6800
6800
6803
6803
6803
6810
6810
6810
6816
6816
6816
6817
6817
6817
6822
6822
6822
6825
6825
6825
6827
6827
6827
6828
6828
6828
6831
6831
6831
6835
6835
6835
6839
6839
6839
6846
6846
6846
6855
6855
6855
6864
6864
6864
6875
6875
6875
6876
6876
6876
6888
6888
6888
6890
6890
6890
6908
6908
6908
6911
6911
6911
6923
6923
6923
6933
6933
6933
6936
6936
6936
6943
6943
6943
6946
6946
6946
6983
6983
6983
6985
6985
6985
6991
6991
6991
6992
6992
6992
7015
7015
7015
7016
7016
7016
7031
7031
7031
7045
7045
7045
7089
7089
7089
7093
7093
7093
7097
7097
7097
7098
7098
7098
7102
7102
7102
7109
7109
7109
7111
7111
7111
7137
7137
7137
7139
7139
7139
7141
7141
7141
7166
7166
7166
7191
7191
7191
7198
7198
7198
7211
7211
7211
7221
7221
7221
7224
7224
7224
7225
7225
7225
7231
7231
7231
7232
7232
7232
7239
7239
7239
7275
7275
7275
7284
7284
7284
7285
7285
7285
7288
7288
7288
7296
7296
7296
7300
7300
7300
7303
7303
7303
7315
7315
7315
7317
7317
7317
7320
7320
7320
7336
7336
7336
7343
7343
7343
7354
7354
7354
7370
7370
7370
7379
7379
7379
7383
7383
7383
7391
7391
7391
7393
7393
7393
7398
7398
7398
7406
7406
7406
7415
7415
7415
7422
7422
7422
7428
7428
7428
7437
7437
7437
7438
7438
7438
7440
7440
7440
7442
7442
7442
7443
7443
7443
7444
7444
7444
7448
7448
7448
7454
7454
7454
7463
7463
7463
7469
7469
7469
7478
7478
7478
7480
7480
7480
7484
7484
7484
7504
7504
7504
7513
7513
7513
7515
7515
7515
7517
7517
7517
7523
7523
7523
7543
7543
7543
7561
7561
7561
7581
7581
7581
7582
7582
7582
7605
7605
7605
7627
7627
7627
7630
7630
7630
7633
7633
7633
7634
7634
7634
7657
7657
7657
7668
7668
7668
7676
7676
7676
7686
7686
7686
7688
7688
7688
7702
7702
7702
7704
7704
7704
7717
7717
7717
7742
7742
7742
7769
7769
7769
7770
7770
7770
7771
7771
7771
7790
7790
7790
7800
7800
7800
7825
7825
7825
7827
7827
7827
7833
7833
7833
7836
7836
7836
7839
7839
7839
7849
7849
7849
7850
7850
7850
7854
7854
7854
7857
7857
7857
7874
7874
7874
7877
7877
7877
7882
7882
7882
7894
7894
7894
7901
7901
7901
7902
7902
7902
7911
7911
7911
7921
7921
7921
7944
7944
7944
7951
7951
7951
7961
7961
7961
7968
7968
7968
7969
7969
7969
7982
7982
7982
7992
7992
7992
8007
8007
8007
8010
8010
8010
8014
8014
8014
8020
8020
8020
8033
8033
8033
8038
8038
8038
8041
8041
8041
8042
8042
8042
8045
8045
8045
8049
8049
8049
8052
8052
8052
8057
8057
8057
8065
8065
8065
8068
8068
8068
8093
8093
8093
8097
8097
8097
8111
8111
8111
8112
8112
8112
8118
8118
8118
8132
8132
8132
8143
8143
8143
8144
8144
8144
8180
8180
8180
8186
8186
8186
8197
8197
8197
8208
8208
8208
8214
8214
8214
8237
8237
8237
8251
8251
8251
8289
8289
8289
8304
8304
8304
8313
8313
8313
8317
8317
8317
8322
8322
8322
8325
8325
8325
8329
8329
8329
8338
8338
8338
8348
8348
8348
8365
8365
8365
8372
8372
8372
8377
8377
8377
8378
8378
8378
8381
8381
8381
8390
8390
8390
8391
8391
8391
8400
8400
8400
8410
8410
8410
8413
8413
8413
8433
8433
8433
8449
8449
8449
8451
8451
8451
8473
8473
8473
8475
8475
8475
8476
8476
8476
8485
8485
8485
8490
8490
8490
8503
8503
8503
8504
8504
8504
8513
8513
8513
8515
8515
8515
8518
8518
8518
8523
8523
8523
8539
8539
8539
8561
8561
8561
